SpectraSmart Spectrum 2.6.17.30709
--------- Device Information -----------
Spectrum Name :  Spectrum_0
Saving Time :  2021/11/14 20:38:23
Spectro-Module Model Name : SE1030-VNIR
Spectro-Module Serial Number : OS361AC55010184
Wavelength Start : 350
Wavelength End : 1020
Wavelength Unit : Wavelength(nm)
Spectrum Unit : Intensity(Counts)
-----------Spectrum Setting ------------
Integration Time : 50ms
Average : 1
Boxcar : 0
Background removal :  enabled
linearity correction :  enabled
SC :  disabled
Intensity correction :  disabled
DWT denoise :  enabled
savitzky-golay :  disabled
FFT :  disabled
Running average :  disabled
Kalman :  disabled
High pass :  disabled
---------------BEGIN--------------------
Wavelength(nm)          Intensity(Counts)
350.00        87.54639
351.00         79.6899
352.00        85.83716
353.00         102.183
354.00        118.5988
355.00        124.7615
356.00        115.8805
357.00        114.4797
358.00        116.8839
359.00        107.2586
360.00        118.1161
361.00        134.7146
362.00        126.8279
363.00        117.7918
364.00        112.1042
365.00        104.6115
366.00        114.3677
367.00        127.3866
368.00        120.2405
369.00        125.0345
370.00        136.5653
371.00        133.4498
372.00        138.6946
373.00        144.2546
374.00        132.8908
375.00        139.9089
376.00        154.6683
377.00         151.285
378.00        137.4643
379.00        128.6271
380.00        138.0912
381.00        148.9756
382.00        151.0576
383.00        142.6929
384.00        141.5276
385.00        145.9025
386.00        144.3967
387.00        140.8469
388.00        135.6544
389.00           130.1
390.00        138.9864
391.00        152.7378
392.00        155.3538
393.00        155.3155
394.00        155.2148
395.00        153.7726
396.00        163.3144
397.00        163.0332
398.00        135.5413
399.00         151.602
400.00        175.1884
401.00        155.1756
402.00        156.2632
403.00         164.108
404.00        153.7808
405.00        155.3995
406.00        159.0277
407.00        153.4186
408.00        152.7917
409.00        156.2692
410.00        160.8283
411.00        151.3641
412.00         155.781
413.00        183.7775
414.00        170.0959
415.00        142.9132
416.00        137.9556
417.00        165.3266
418.00        175.6905
419.00        145.9347
420.00        154.1384
421.00        169.7021
422.00          169.13
423.00        174.3161
424.00        170.2916
425.00        158.0031
426.00        158.8661
427.00        170.4661
428.00        183.4295
429.00        181.6556
430.00          180.62
431.00        185.6588
432.00        186.6498
433.00        188.8835
434.00         192.457
435.00        195.1158
436.00        191.4356
437.00        186.1031
438.00        188.5761
439.00        199.3478
440.00        208.2357
441.00        203.1346
442.00        201.6048
443.00         205.678
444.00        208.9234
445.00        216.4058
446.00        221.6795
447.00        218.8138
448.00        219.2791
449.00         221.796
450.00        222.7218
451.00        229.0699
452.00        236.4274
453.00        240.7143
454.00        241.9937
455.00         247.236
456.00        256.8434
457.00        244.7744
458.00        245.9548
459.00        276.4729
460.00        298.7802
461.00        309.5218
462.00        309.4917
463.00        307.1256
464.00        303.3502
465.00        304.5966
466.00        321.5285
467.00        334.0442
468.00        337.5813
469.00        336.8289
470.00         360.989
471.00        383.4409
472.00        363.7448
473.00        362.5291
474.00        388.0363
475.00         419.063
476.00        428.4911
477.00        419.0424
478.00        412.1212
479.00        417.1952
480.00        435.5347
481.00        458.0791
482.00        460.6414
483.00        467.3294
484.00        485.8857
485.00        461.8807
486.00        477.1892
487.00         539.076
488.00        553.0388
489.00        546.2056
490.00        545.6853
491.00         576.313
492.00         592.811
493.00         596.061
494.00         613.924
495.00         623.054
496.00        631.7726
497.00          651.68
498.00        652.7668
499.00        657.4196
500.00        686.1877
501.00        708.6273
502.00        727.3939
503.00        749.4938
504.00        771.5671
505.00        804.1114
506.00        836.4803
507.00        824.5164
508.00        847.4984
509.00        904.9097
510.00        929.2633
511.00        956.4235
512.00        988.7182
513.00        1014.562
514.00        1041.149
515.00        1064.474
516.00         1084.04
517.00        1156.166
518.00        1206.076
519.00        1189.639
520.00        1243.131
521.00        1285.603
522.00        1292.698
523.00        1378.312
524.00        1437.281
525.00        1465.542
526.00        1546.956
527.00         1619.49
528.00        1674.101
529.00         1728.75
530.00        1776.218
531.00        1835.654
532.00        1916.359
533.00        1966.814
534.00        2026.664
535.00        2122.761
536.00        2188.081
537.00        2274.707
538.00         2382.25
539.00        2437.316
540.00        2482.363
541.00        2538.411
542.00        2610.489
543.00        2712.224
544.00        2835.525
545.00        2959.135
546.00        3038.281
547.00        3107.848
548.00        3206.421
549.00        3327.708
550.00        3415.201
551.00        3470.764
552.00        3580.602
553.00        3710.513
554.00        3806.913
555.00        3825.473
556.00        3930.864
557.00        4085.634
558.00        4186.427
559.00        4278.764
560.00        4369.685
561.00        4469.295
562.00         4600.53
563.00         4702.11
564.00        4775.445
565.00        4910.864
566.00        5004.294
567.00        5069.665
568.00        5173.033
569.00        5332.701
570.00        5461.772
571.00        5504.734
572.00        5646.572
573.00        5771.743
574.00        5806.845
575.00          5844.5
576.00        5935.514
577.00         6065.14
578.00        6165.942
579.00        6216.791
580.00        6281.454
581.00        6418.791
582.00        6517.665
583.00        6606.512
584.00          6709.1
585.00        6777.003
586.00         6831.57
587.00        6903.996
588.00        7015.302
589.00         7139.24
590.00         7227.28
591.00        7256.763
592.00        7385.219
593.00        7482.644
594.00        7478.899
595.00         7644.75
596.00        7764.206
597.00        7814.093
598.00        7982.013
599.00        8030.664
600.00        8016.648
601.00        8081.504
602.00        8080.754
603.00        8155.559
604.00        8345.051
605.00        8366.771
606.00        8441.431
607.00        8604.035
608.00        8707.211
609.00        8851.301
610.00        8977.194
611.00        9036.321
612.00        9238.919
613.00        9390.573
614.00        9425.816
615.00        9615.763
616.00        9767.475
617.00        9882.551
618.00        10061.06
619.00        10204.24
620.00        10343.49
621.00        10516.85
622.00        10647.51
623.00        10847.34
624.00         11082.5
625.00        11179.81
626.00        11324.07
627.00         11532.2
628.00        11745.57
629.00        11943.04
630.00        12148.61
631.00        12378.33
632.00        12582.58
633.00        12822.04
634.00        13038.04
635.00        13151.17
636.00         13355.9
637.00        13596.91
638.00        13804.54
639.00        14078.37
640.00        14346.94
641.00        14628.14
642.00        14956.36
643.00        15147.76
644.00        15345.38
645.00        15717.27
646.00         15949.9
647.00        16209.72
648.00        16531.13
649.00        16789.78
650.00         17012.4
651.00        17250.56
652.00        17544.02
653.00        17872.83
654.00         18160.4
655.00         18418.4
656.00        18761.24
657.00        19097.78
658.00        19418.69
659.00        19738.22
660.00        20053.67
661.00        20326.07
662.00        20597.84
663.00         21006.5
664.00        21406.98
665.00        21816.11
666.00        22264.02
667.00        22502.74
668.00        22815.31
669.00        23297.59
670.00        23714.92
671.00        24071.65
672.00        24404.61
673.00        24785.67
674.00        25188.24
675.00        25681.34
676.00         26058.4
677.00        26397.81
678.00        26847.98
679.00        27308.99
680.00         27661.3
681.00        28048.19
682.00        28571.94
683.00        29078.61
684.00        29276.11
685.00        29895.24
686.00        30542.94
687.00        30843.19
688.00        31358.44
689.00        31855.14
690.00        32256.23
691.00        32760.36
692.00        33176.41
693.00        33706.38
694.00        34319.43
695.00        34709.73
696.00        35137.42
697.00        35617.26
698.00        36050.35
699.00         36514.1
700.00        36941.96
701.00        37358.46
702.00        37949.32
703.00        38442.56
704.00        38721.64
705.00        39193.39
706.00        39504.92
707.00        39841.18
708.00        40227.05
709.00         40590.7
710.00        41208.04
711.00        41693.09
712.00        41914.87
713.00         42269.3
714.00        42509.27
715.00        42726.01
716.00        43052.85
717.00         43300.5
718.00        43602.61
719.00         43847.7
720.00        43858.06
721.00         44100.9
722.00        44343.05
723.00        44477.98
724.00         44872.7
725.00        45185.35
726.00         45527.2
727.00        45819.45
728.00        46116.56
729.00        46406.39
730.00        46656.83
731.00         46819.4
732.00           46984
733.00        47203.69
734.00        47524.54
735.00        47839.14
736.00        48132.45
737.00        48314.14
738.00        48395.11
739.00        48754.07
740.00        49105.16
741.00        49396.96
742.00        49532.91
743.00        49798.73
744.00        49966.63
745.00        50120.15
746.00        50447.77
747.00        50624.43
748.00        50629.27
749.00        50742.33
750.00           50743
751.00        50904.03
752.00        51004.05
753.00         51351.8
754.00        51357.95
755.00        51585.14
756.00        51538.82
757.00        51388.82
758.00        51593.84
759.00        51671.42
760.00        51618.62
761.00        51585.88
762.00        51767.35
763.00        51843.13
764.00           51851
765.00        51879.68
766.00        51999.47
767.00        52015.05
768.00        51926.82
769.00        51960.14
770.00        51989.99
771.00        51950.36
772.00        51988.23
773.00        52062.33
774.00        52050.89
775.00         51872.1
776.00        51705.26
777.00        51742.44
778.00        51438.22
779.00        51568.54
780.00        51400.64
781.00        51494.32
782.00        51565.11
783.00        51519.38
784.00        51485.52
785.00        51406.17
786.00        51387.46
787.00        51294.76
788.00        51281.94
789.00        51296.16
790.00        51137.19
791.00        50920.35
792.00        51019.84
793.00        50808.55
794.00        50718.19
795.00         50692.5
796.00        51056.01
797.00         50596.5
798.00        50613.54
799.00        50617.12
800.00        50475.05
801.00        50454.04
802.00        50270.24
803.00        50186.48
804.00        50227.24
805.00        50286.83
806.00        50357.21
807.00        50290.34
808.00         50014.3
809.00        50020.93
810.00        49893.74
811.00        49796.36
812.00        49924.37
813.00        49843.87
814.00        49942.14
815.00        49937.08
816.00        49686.96
817.00        49902.23
818.00        49822.62
819.00        49560.52
820.00        49555.71
821.00        49327.35
822.00        49358.05
823.00        49406.54
824.00        49318.17
825.00        49370.89
826.00        49218.51
827.00        49207.63
828.00        49298.25
829.00        49099.85
830.00        49196.02
831.00        49351.55
832.00        49372.35
833.00        49342.57
834.00        49609.14
835.00        49699.17
836.00        49577.68
837.00        49454.27
838.00        49669.94
839.00        49986.05
840.00        49669.63
841.00        49759.43
842.00        49663.44
843.00        49765.11
844.00        49834.45
845.00        49769.15
846.00        49947.69
847.00        50099.44
848.00        50193.39
849.00           50153
850.00        50412.98
851.00        50472.33
852.00        50440.73
853.00        50503.25
854.00        50458.46
855.00        50397.38
856.00        50595.96
857.00        50715.58
858.00        50650.64
859.00        50910.38
860.00        51267.98
861.00         51242.7
862.00        51089.51
863.00        51386.11
864.00        51283.82
865.00        51418.54
866.00        51617.44
867.00        51545.71
868.00        51743.68
869.00        51713.84
870.00        51588.04
871.00        51490.48
872.00        51383.79
873.00        51425.18
874.00        51376.65
875.00        51193.38
876.00        51057.73
877.00        51254.86
878.00        51153.35
879.00        51523.29
880.00        51428.28
881.00        51819.77
882.00        51911.01
883.00         51989.4
884.00        52104.45
885.00         52073.2
886.00        52355.71
887.00        52373.38
888.00        52321.32
889.00        52425.43
890.00        52662.89
891.00        53064.77
892.00         53120.9
893.00        53143.28
894.00        53221.27
895.00        53060.19
896.00         53080.3
897.00        53075.95
898.00        53302.73
899.00        52905.56
900.00        53075.39
901.00        52987.45
902.00        52844.06
903.00        52343.04
904.00        52764.73
905.00         52871.5
906.00        52639.15
907.00        52548.33
908.00        52649.06
909.00        52441.99
910.00        52168.48
911.00        52035.96
912.00        51697.47
913.00        51876.14
914.00        51429.95
915.00         51228.8
916.00        50883.24
917.00         50642.2
918.00        50436.75
919.00        50404.63
920.00        49872.63
921.00        49439.83
922.00         49172.8
923.00        48747.83
924.00        48242.22
925.00        47814.81
926.00        47349.15
927.00        46784.52
928.00        46333.68
929.00         45686.2
930.00         44939.2
931.00        44184.69
932.00        43279.25
933.00         42019.3
934.00         40296.7
935.00        38232.38
936.00        35998.92
937.00        33680.99
938.00         31380.3
939.00         29628.8
940.00         28129.8
941.00        27072.94
942.00        26393.07
943.00        26092.74
944.00         26072.5
945.00        26231.88
946.00        26671.55
947.00        27275.91
948.00        27771.26
949.00        28355.46
950.00        29132.13
951.00        30017.46
952.00        30767.98
953.00        31317.96
954.00        31875.98
955.00        32839.18
956.00        33324.69
957.00        33688.77
958.00        34459.88
959.00        34706.95
960.00        35161.43
961.00        35595.33
962.00        35861.68
963.00        36008.02
964.00        36159.61
965.00        35839.96
966.00        36055.55
967.00        35925.56
968.00        35952.02
969.00        35890.54
970.00        35945.32
971.00        36070.79
972.00         36072.7
973.00        36024.72
974.00        36056.59
975.00        36433.52
976.00        36262.08
977.00        35852.37
978.00        35746.84
979.00        35660.28
980.00        35248.34
981.00           35140
982.00        34703.42
983.00        34386.76
984.00        34354.22
985.00        34263.95
986.00        33695.86
987.00        33502.49
988.00         33178.8
989.00         32605.5
990.00         31890.5
991.00        31212.42
992.00         30459.8
993.00        29473.43
994.00        28630.34
995.00        27682.26
996.00        26797.64
997.00        25983.01
998.00        24999.04
999.00        24013.98
1000.00        23274.24
1001.00        22208.91
1002.00        21296.48
1003.00         20557.8
1004.00        19578.93
1005.00        18729.17
1006.00        17836.85
1007.00        16900.51
1008.00        16087.36
1009.00        15296.45
1010.00        14388.16
1011.00        13621.45
1012.00        12804.14
1013.00        12099.21
1014.00        11370.49
1015.00        10615.03
1016.00        9900.404
1017.00        9230.579
1018.00        8713.955
1019.00        8149.975
1020.00        7368.881
