SpectraSmart Spectrum 2.6.17.30709
--------- Device Information -----------
Spectrum Name :  Spectrum_0
Saving Time :  2021/11/14 20:35:54
Spectro-Module Model Name : SE1030-VNIR
Spectro-Module Serial Number : OS361AC55010184
Wavelength Start : 350
Wavelength End : 1020
Wavelength Unit : Wavelength(nm)
Spectrum Unit : Intensity(Counts)
-----------Spectrum Setting ------------
Integration Time : 50ms
Average : 1
Boxcar : 0
Background removal :  enabled
linearity correction :  enabled
SC :  disabled
Intensity correction :  disabled
DWT denoise :  enabled
savitzky-golay :  disabled
FFT :  disabled
Running average :  disabled
Kalman :  disabled
High pass :  disabled
---------------BEGIN--------------------
Wavelength(nm)          Intensity(Counts)
350.00        129.9279
351.00        138.1995
352.00        138.4493
353.00        120.4628
354.00        122.6667
355.00        133.7127
356.00        123.6952
357.00        134.3836
358.00        153.1085
359.00        149.1528
360.00         149.748
361.00        155.5323
362.00        154.5184
363.00        162.8368
364.00        166.0554
365.00        143.0553
366.00        145.2642
367.00        163.3243
368.00        160.9477
369.00        166.5562
370.00        171.2307
371.00        155.6375
372.00        154.7684
373.00        163.9033
374.00        161.6709
375.00        164.4515
376.00        166.7241
377.00        158.5107
378.00         154.407
379.00        159.3732
380.00        168.6249
381.00        178.2941
382.00        172.9989
383.00        141.1291
384.00        152.5065
385.00        179.1358
386.00        161.6599
387.00        168.1507
388.00         184.839
389.00        174.7743
390.00        176.1583
391.00        182.5606
392.00        176.8037
393.00        189.4677
394.00        202.1627
395.00        189.8127
396.00        182.5949
397.00        181.5194
398.00        178.8391
399.00        177.8449
400.00        178.6836
401.00        181.6319
402.00        183.9791
403.00        187.4606
404.00        194.5733
405.00        196.1388
406.00        201.0265
407.00         213.458
408.00        195.9473
409.00        177.2176
410.00        186.0723
411.00        189.0306
412.00        188.9341
413.00        190.9129
414.00         185.008
415.00        182.2123
416.00        188.4466
417.00        183.6823
418.00        183.8834
419.00        196.0546
420.00        193.7428
421.00        188.0166
422.00        189.3079
423.00        191.1047
424.00        202.3956
425.00        216.6396
426.00         203.105
427.00         191.825
428.00        197.8347
429.00        200.0479
430.00        215.3185
431.00        233.1002
432.00        208.1543
433.00        216.4269
434.00        252.2384
435.00        234.1114
436.00        229.0029
437.00        238.1687
438.00        219.6536
439.00        224.2966
440.00        244.2217
441.00        243.4053
442.00        247.4908
443.00        249.0735
444.00        231.9557
445.00        261.6842
446.00         292.833
447.00        264.0817
448.00        282.4964
449.00        305.5599
450.00        277.6225
451.00        294.3345
452.00        319.4472
453.00        312.1432
454.00        317.2551
455.00         330.911
456.00        343.0307
457.00         344.816
458.00        344.2751
459.00        350.8491
460.00        370.2566
461.00        381.8979
462.00        382.5462
463.00        406.1563
464.00        412.4058
465.00        405.0693
466.00        436.3498
467.00        441.9699
468.00        426.6567
469.00        441.0952
470.00        455.9151
471.00        467.9441
472.00        483.0181
473.00         504.818
474.00        519.1727
475.00        513.8187
476.00        512.4708
477.00        525.2886
478.00        550.5769
479.00        580.7431
480.00        601.3635
481.00        606.6793
482.00        616.4365
483.00        621.9826
484.00        622.1141
485.00        644.7812
486.00        657.9028
487.00        661.9182
488.00        711.9098
489.00        729.3502
490.00        720.3408
491.00         759.277
492.00        770.7462
493.00        764.9885
494.00        786.4583
495.00        804.1238
496.00        811.1804
497.00        813.9093
498.00         854.432
499.00        899.1457
500.00        912.0139
501.00        935.8569
502.00        960.3458
503.00        981.2314
504.00        1010.606
505.00        1058.218
506.00        1108.474
507.00        1112.976
508.00        1127.581
509.00        1168.954
510.00        1215.746
511.00        1246.628
512.00        1271.058
513.00        1313.729
514.00        1358.203
515.00        1405.568
516.00        1456.181
517.00        1519.074
518.00        1557.797
519.00        1568.674
520.00        1652.284
521.00        1738.706
522.00        1781.762
523.00        1808.763
524.00        1876.606
525.00        1980.384
526.00        2046.668
527.00        2128.591
528.00        2205.721
529.00        2239.139
530.00        2326.262
531.00        2431.537
532.00        2497.856
533.00        2578.778
534.00        2671.737
535.00        2771.706
536.00         2900.64
537.00        2999.932
538.00        3073.494
539.00        3218.935
540.00        3322.879
541.00         3394.33
542.00        3520.359
543.00        3630.518
544.00        3743.822
545.00        3887.189
546.00        3989.112
547.00         4081.52
548.00        4209.703
549.00        4401.762
550.00        4541.686
551.00        4606.802
552.00        4739.785
553.00        4873.258
554.00        4983.854
555.00        5076.184
556.00        5229.068
557.00        5379.803
558.00        5451.987
559.00        5592.887
560.00        5746.275
561.00          5864.3
562.00        6033.604
563.00        6213.534
564.00        6366.373
565.00        6473.026
566.00        6585.453
567.00        6715.945
568.00        6842.967
569.00        6975.842
570.00        7096.312
571.00        7197.882
572.00        7323.896
573.00        7459.521
574.00        7590.724
575.00        7751.641
576.00         7834.09
577.00        7879.949
578.00        8039.792
579.00        8143.332
580.00        8240.605
581.00        8416.967
582.00        8480.238
583.00        8554.489
584.00        8725.299
585.00        8822.426
586.00        8952.384
587.00         9114.64
588.00        9195.856
589.00        9325.698
590.00        9437.844
591.00        9448.728
592.00        9630.265
593.00        9815.111
594.00        9873.216
595.00        10030.68
596.00         10183.6
597.00        10291.05
598.00         10394.8
599.00         10446.7
600.00        10500.41
601.00        10606.64
602.00        10525.78
603.00        10537.85
604.00        10790.05
605.00        10860.05
606.00        11012.37
607.00        11236.28
608.00        11294.84
609.00         11489.6
610.00        11696.87
611.00        11746.23
612.00        11924.41
613.00        12093.58
614.00        12203.44
615.00        12489.22
616.00        12629.74
617.00        12723.63
618.00        13042.71
619.00        13267.35
620.00        13407.42
621.00        13567.23
622.00        13790.87
623.00        14033.51
624.00        14245.77
625.00        14409.93
626.00        14674.03
627.00        14955.47
628.00        15125.95
629.00        15299.72
630.00        15510.02
631.00        15782.72
632.00        16145.47
633.00        16436.49
634.00        16665.51
635.00        16939.52
636.00        17181.96
637.00        17453.51
638.00        17791.83
639.00        18094.34
640.00        18389.47
641.00        18682.53
642.00        18957.19
643.00        19347.59
644.00        19723.64
645.00         19976.9
646.00        20359.83
647.00        20689.19
648.00        20949.71
649.00        21342.08
650.00        21623.01
651.00        21966.03
652.00        22518.53
653.00         22842.9
654.00           23172
655.00        23595.24
656.00        23930.09
657.00        24291.85
658.00        24697.77
659.00        25118.24
660.00        25535.14
661.00        25907.79
662.00        26253.93
663.00        26646.79
664.00        27123.75
665.00        27654.54
666.00        28169.67
667.00        28666.81
668.00        29036.98
669.00        29343.63
670.00        29918.13
671.00        30472.77
672.00        31009.08
673.00        31523.15
674.00        31979.12
675.00        32466.02
676.00        33011.04
677.00        33559.58
678.00        34035.66
679.00        34516.45
680.00        35089.34
681.00        35611.87
682.00        36227.94
683.00        36863.63
684.00        37301.98
685.00        37912.82
686.00           38606
687.00        39213.47
688.00        39762.83
689.00        40276.67
690.00        40818.48
691.00        41368.99
692.00        42030.58
693.00        42609.42
694.00        42922.22
695.00        43696.89
696.00        44298.88
697.00        44825.51
698.00        45543.05
699.00         46007.7
700.00        46356.35
701.00         46819.9
702.00        47725.07
703.00        48074.75
704.00        48460.83
705.00        49317.87
706.00        49738.66
707.00        50019.28
708.00        50498.42
709.00        51010.94
710.00        51867.96
711.00        52519.01
712.00        52735.39
713.00        52877.76
714.00        53256.07
715.00        53808.91
716.00        54229.03
717.00         54459.2
718.00        54987.27
719.00        55303.33
720.00        55467.25
721.00        55926.89
722.00        56305.01
723.00        56569.66
724.00        57186.91
725.00        57480.36
726.00        57820.14
727.00        58099.77
728.00         58208.5
729.00        58506.78
730.00        58936.63
731.00        59159.05
732.00         59485.7
733.00         59614.9
734.00        59600.13
735.00        59971.34
736.00         60266.6
737.00        60429.74
738.00        60513.92
739.00        61141.07
740.00        61521.13
741.00        61614.13
742.00        62010.67
743.00         62176.7
744.00        62068.71
745.00        62132.15
746.00        62499.37
747.00        62632.87
748.00        62703.25
749.00        62879.18
750.00        63150.23
751.00         63141.9
752.00        63256.74
753.00        63721.54
754.00        63631.47
755.00        63706.27
756.00         63844.5
757.00        63608.39
758.00        63625.08
759.00        63845.88
760.00        63896.53
761.00        63792.32
762.00        63902.45
763.00        64017.72
764.00        63956.74
765.00        63706.31
766.00        63766.55
767.00        64064.83
768.00         63783.1
769.00        63915.39
770.00        63806.99
771.00        63825.99
772.00        63986.84
773.00        63828.26
774.00        63621.88
775.00        63641.15
776.00        63623.11
777.00        63208.32
778.00        63178.39
779.00        63293.67
780.00        62947.28
781.00        63201.64
782.00        63142.22
783.00        63207.52
784.00        62907.91
785.00        62887.66
786.00        62765.38
787.00        62749.61
788.00        63027.65
789.00        62895.59
790.00        62585.59
791.00        62416.83
792.00        62447.96
793.00        62368.37
794.00        62188.73
795.00        62178.76
796.00         62240.3
797.00         62006.2
798.00        61799.95
799.00        61642.64
800.00        61690.43
801.00        61745.86
802.00        61731.87
803.00           61546
804.00        61324.73
805.00        61258.03
806.00        61334.35
807.00        61387.05
808.00        61112.65
809.00        61123.78
810.00         60907.6
811.00        60694.21
812.00        60737.07
813.00        60985.98
814.00        60873.94
815.00        60589.63
816.00         60669.8
817.00        60800.86
818.00        60575.74
819.00        60346.85
820.00        60422.06
821.00        60363.04
822.00        60243.48
823.00        60174.25
824.00        60222.52
825.00        60337.82
826.00        59994.94
827.00        60035.94
828.00        60364.34
829.00        60165.49
830.00        59987.82
831.00        59936.09
832.00        59952.12
833.00        59934.69
834.00        59882.04
835.00        59918.93
836.00         60126.7
837.00        60229.02
838.00        60048.16
839.00        60217.27
840.00        60499.48
841.00         60437.3
842.00        60106.43
843.00        60429.14
844.00        60467.73
845.00        60511.44
846.00        60608.34
847.00        60799.86
848.00        60768.31
849.00        60569.69
850.00        60934.99
851.00        61043.31
852.00        61134.02
853.00        61166.46
854.00        61130.58
855.00        61271.32
856.00         61475.5
857.00        61487.19
858.00        61441.01
859.00        61490.13
860.00        61864.46
861.00        61918.09
862.00        61893.53
863.00        61982.18
864.00           61987
865.00        62234.53
866.00        62465.41
867.00         62331.8
868.00        62708.59
869.00        62544.17
870.00        62527.37
871.00        62775.48
872.00        62500.14
873.00        62727.61
874.00        62939.68
875.00        62845.11
876.00         62676.8
877.00        62932.08
878.00        63108.37
879.00        63130.59
880.00        63371.77
881.00         63109.8
882.00        63242.21
883.00        63439.64
884.00        63343.41
885.00         63221.9
886.00        63489.41
887.00         63632.1
888.00        63635.05
889.00        63690.83
890.00        63795.65
891.00        63983.84
892.00        63973.14
893.00        64001.39
894.00         64283.3
895.00        64026.41
896.00        64001.59
897.00        64101.71
898.00        63989.81
899.00        63637.58
900.00        63953.57
901.00        63922.45
902.00        63613.41
903.00        63494.82
904.00        63650.88
905.00        63552.69
906.00        63178.09
907.00        63083.82
908.00        63280.79
909.00        63236.15
910.00        63153.76
911.00        62855.92
912.00        62546.08
913.00        62431.59
914.00        62395.39
915.00        61985.13
916.00        61621.27
917.00        61607.55
918.00        61176.82
919.00        61361.97
920.00        60936.53
921.00        60457.79
922.00        60312.98
923.00        59818.72
924.00        59350.17
925.00        59271.52
926.00        58949.51
927.00        58389.04
928.00        58009.28
929.00        57455.75
930.00        56716.53
931.00        56100.71
932.00        55518.09
933.00        54351.35
934.00        53602.14
935.00        52251.64
936.00        50650.65
937.00        49456.87
938.00        48321.49
939.00        47541.81
940.00        46920.34
941.00        46485.72
942.00        46109.44
943.00         45750.3
944.00        45865.81
945.00        45898.88
946.00        45898.13
947.00           46076
948.00        46268.46
949.00        46382.29
950.00        46597.52
951.00        46940.91
952.00        47232.02
953.00        47326.67
954.00         47418.2
955.00        47670.36
956.00        47701.73
957.00         47642.9
958.00        47772.73
959.00        47815.04
960.00        47680.73
961.00        47629.11
962.00        47656.22
963.00        47569.73
964.00         47261.4
965.00        46575.86
966.00        46355.35
967.00        46054.86
968.00        45690.51
969.00        45500.78
970.00        45494.72
971.00        45178.04
972.00        45078.25
973.00        44980.94
974.00         44683.1
975.00        44583.54
976.00        44557.07
977.00        44260.15
978.00        43681.28
979.00        43354.54
980.00        42856.85
981.00        42464.29
982.00        41957.83
983.00        41510.21
984.00        41194.33
985.00         40858.4
986.00        40389.17
987.00        40012.11
988.00        39500.35
989.00        38763.02
990.00        37810.27
991.00        36784.87
992.00        35792.83
993.00        34693.87
994.00        33503.08
995.00        32315.95
996.00        31241.16
997.00           30227
998.00        29138.39
999.00        28010.96
1000.00        26938.28
1001.00        25885.93
1002.00        24808.93
1003.00        23736.38
1004.00        22714.78
1005.00        21701.71
1006.00        20660.01
1007.00         19700.1
1008.00        18790.77
1009.00        17826.16
1010.00        16829.01
1011.00        15965.28
1012.00        15009.85
1013.00        14120.24
1014.00        13245.81
1015.00         12398.9
1016.00        11610.37
1017.00        10856.04
1018.00        10106.14
1019.00        9481.976
1020.00        8589.574
