SpectraSmart Spectrum 2.6.17.30709
--------- Device Information -----------
Spectrum Name :  Spectrum_0
Saving Time :  2021/11/14 20:53:41
Spectro-Module Model Name : SE1030-VNIR
Spectro-Module Serial Number : OS361AC55010184
Wavelength Start : 350
Wavelength End : 1020
Wavelength Unit : Wavelength(nm)
Spectrum Unit : Intensity(Counts)
-----------Spectrum Setting ------------
Integration Time : 50ms
Average : 1
Boxcar : 0
Background removal :  enabled
linearity correction :  enabled
SC :  disabled
Intensity correction :  disabled
DWT denoise :  enabled
savitzky-golay :  disabled
FFT :  disabled
Running average :  disabled
Kalman :  disabled
High pass :  disabled
---------------BEGIN--------------------
Wavelength(nm)          Intensity(Counts)
350.00        104.2991
351.00        104.9409
352.00        106.1564
353.00        115.0215
354.00        112.2781
355.00        105.7718
356.00        112.5373
357.00        112.6144
358.00        108.0728
359.00        109.0493
360.00        117.7943
361.00        127.3215
362.00        127.5396
363.00        125.9516
364.00        125.9428
365.00        125.1333
366.00        138.6585
367.00        146.7151
368.00        120.6664
369.00        124.8566
370.00        143.3612
371.00        128.4078
372.00        127.7951
373.00        137.6676
374.00        133.6055
375.00        136.4251
376.00        137.5201
377.00        121.9214
378.00        125.4626
379.00        139.5887
380.00         142.369
381.00        129.7554
382.00        127.0461
383.00        162.1539
384.00        160.5294
385.00        138.1392
386.00         144.534
387.00          142.02
388.00        137.4266
389.00        147.4051
390.00        146.4366
391.00        142.1168
392.00         148.835
393.00        149.5147
394.00        144.9845
395.00         141.311
396.00        153.3096
397.00        161.8415
398.00        145.8195
399.00        143.6881
400.00        148.1084
401.00        143.0989
402.00        153.5169
403.00        168.3454
404.00        171.6719
405.00        171.7674
406.00        169.0114
407.00        163.9373
408.00         160.669
409.00        153.5934
410.00        142.3459
411.00        131.0695
412.00        141.9628
413.00        175.5331
414.00        160.1521
415.00        140.2786
416.00        155.2311
417.00        153.5937
418.00        154.2107
419.00        168.3524
420.00        170.7486
421.00        175.8428
422.00        186.8834
423.00        179.3159
424.00        167.0885
425.00        161.5846
426.00          154.98
427.00        164.8328
428.00           182.3
429.00        157.7148
430.00        157.4086
431.00         188.284
432.00        183.0484
433.00        180.4303
434.00         189.199
435.00        192.4519
436.00        197.3261
437.00        200.2437
438.00        192.8639
439.00        197.8481
440.00        207.3078
441.00        199.3315
442.00        200.6656
443.00        207.4568
444.00        205.7066
445.00        209.4203
446.00        217.4156
447.00        222.9632
448.00        230.4524
449.00        231.4627
450.00        222.0484
451.00        242.2486
452.00        257.3285
453.00        241.0922
454.00         269.687
455.00        294.0573
456.00        278.1259
457.00        282.6001
458.00        290.6636
459.00        290.9037
460.00        292.0625
461.00        300.7616
462.00        313.5753
463.00        314.1071
464.00        308.8284
465.00         311.178
466.00        340.8187
467.00        348.4965
468.00        338.0303
469.00         350.869
470.00         363.684
471.00        369.3185
472.00        370.7337
473.00        371.2784
474.00        380.4432
475.00        403.2246
476.00        395.6244
477.00        396.4349
478.00        438.5966
479.00        432.5714
480.00         417.993
481.00        435.9654
482.00        440.4688
483.00        451.8625
484.00        475.5368
485.00        477.0882
486.00        490.2518
487.00        521.8377
488.00        531.0621
489.00        552.2162
490.00        571.0293
491.00        538.9393
492.00        550.5584
493.00        594.7984
494.00        609.2177
495.00        627.2565
496.00        644.6219
497.00        652.4319
498.00        668.0315
499.00         684.072
500.00        694.5532
501.00        712.4987
502.00         741.626
503.00         773.601
504.00         794.524
505.00        792.4368
506.00        790.0861
507.00        858.7042
508.00        893.9614
509.00         890.351
510.00        928.6702
511.00        955.2209
512.00        972.5594
513.00        1003.211
514.00        1025.576
515.00        1050.228
516.00        1091.685
517.00        1128.532
518.00        1177.229
519.00        1240.292
520.00        1252.261
521.00        1286.268
522.00        1363.406
523.00        1395.296
524.00        1423.189
525.00        1469.787
526.00        1540.137
527.00         1587.26
528.00        1628.477
529.00        1704.111
530.00          1768.6
531.00        1815.408
532.00        1857.404
533.00         1948.06
534.00        2026.065
535.00        2063.896
536.00         2197.95
537.00        2302.098
538.00        2346.643
539.00        2457.067
540.00        2549.189
541.00        2610.736
542.00        2677.377
543.00        2738.885
544.00        2818.595
545.00        2929.555
546.00        3027.727
547.00        3113.568
548.00        3200.788
549.00        3303.355
550.00        3394.941
551.00        3471.667
552.00        3564.939
553.00        3677.091
554.00        3783.806
555.00        3845.785
556.00        3969.062
557.00        4096.993
558.00        4154.095
559.00        4296.315
560.00        4441.689
561.00        4510.164
562.00        4564.273
563.00        4658.726
564.00        4801.515
565.00        4938.988
566.00        5017.549
567.00        5084.579
568.00        5224.472
569.00        5365.129
570.00        5478.027
571.00        5565.422
572.00        5607.712
573.00        5710.651
574.00        5879.083
575.00        5883.541
576.00        5984.278
577.00        6163.446
578.00        6193.094
579.00        6251.294
580.00        6364.044
581.00        6489.156
582.00        6583.194
583.00        6660.089
584.00         6744.22
585.00        6866.699
586.00        6895.167
587.00        6885.997
588.00        7060.733
589.00        7192.172
590.00        7263.296
591.00         7351.43
592.00        7425.063
593.00        7519.877
594.00        7636.665
595.00         7639.83
596.00        7763.507
597.00         7971.39
598.00        7958.895
599.00        8034.481
600.00        8143.856
601.00        8139.994
602.00        8108.754
603.00        8162.466
604.00        8326.584
605.00        8409.328
606.00        8500.862
607.00        8626.309
608.00        8730.752
609.00        8892.586
610.00        9016.961
611.00        9040.933
612.00        9225.484
613.00        9418.294
614.00        9524.795
615.00        9674.907
616.00        9833.952
617.00        9979.426
618.00        10097.43
619.00        10228.97
620.00        10384.87
621.00        10556.11
622.00        10727.96
623.00        10897.92
624.00        11077.01
625.00        11281.32
626.00        11477.15
627.00        11655.52
628.00        11820.25
629.00        11940.77
630.00        12097.56
631.00        12337.66
632.00        12608.17
633.00        12858.78
634.00        13057.44
635.00         13213.9
636.00        13487.64
637.00        13747.12
638.00        13897.46
639.00        14119.87
640.00        14413.61
641.00        14709.04
642.00        14924.41
643.00        15078.81
644.00        15326.56
645.00        15719.78
646.00        15936.52
647.00        16146.07
648.00        16407.49
649.00        16612.53
650.00        16932.33
651.00        17315.82
652.00        17654.91
653.00         17897.1
654.00        18217.55
655.00        18611.89
656.00        18846.75
657.00         19134.2
658.00        19502.82
659.00        19867.23
660.00        20061.71
661.00         20320.3
662.00        20747.45
663.00        21196.38
664.00        21484.01
665.00        21780.31
666.00        22268.47
667.00        22610.64
668.00        22884.96
669.00        23213.31
670.00        23661.41
671.00        24091.64
672.00        24474.39
673.00        24861.88
674.00        25310.15
675.00        25718.74
676.00        26082.42
677.00        26487.84
678.00        26928.74
679.00        27376.27
680.00         27807.4
681.00        28243.63
682.00        28714.56
683.00        29184.45
684.00         29585.6
685.00        30042.42
686.00        30535.36
687.00         30925.1
688.00        31331.51
689.00        31827.37
690.00        32379.92
691.00         32876.7
692.00         33390.4
693.00        33782.88
694.00        34097.58
695.00        34662.37
696.00        35271.87
697.00        35771.77
698.00        36093.88
699.00        36720.26
700.00        37089.29
701.00        37360.27
702.00        37856.06
703.00        38364.31
704.00        38831.87
705.00        39272.95
706.00        39662.17
707.00        40069.55
708.00        40423.05
709.00        40670.16
710.00        41308.25
711.00        41753.07
712.00        41847.64
713.00        42150.29
714.00        42702.15
715.00        43065.98
716.00        43276.75
717.00        43399.25
718.00        43540.57
719.00        43762.94
720.00        44085.88
721.00        44278.38
722.00         44386.2
723.00        44539.44
724.00        44771.61
725.00           45235
726.00        45701.58
727.00        45929.74
728.00        46240.71
729.00        46269.65
730.00           46782
731.00        46916.93
732.00        47059.66
733.00        47428.78
734.00        47774.48
735.00        47856.47
736.00        48139.06
737.00        48287.64
738.00        48321.05
739.00        48980.22
740.00        49205.27
741.00        49252.55
742.00        49667.77
743.00        49781.61
744.00        49908.45
745.00        50099.36
746.00        50208.13
747.00        50378.28
748.00        50501.68
749.00         50631.1
750.00        51029.33
751.00        50887.45
752.00         50841.2
753.00         51341.6
754.00        51318.67
755.00        51448.25
756.00        51589.54
757.00        51367.44
758.00        51515.37
759.00        51806.07
760.00        51782.29
761.00        51589.63
762.00        51747.78
763.00        51842.59
764.00        51845.05
765.00        52015.22
766.00        52062.63
767.00        52072.35
768.00         52019.2
769.00         51963.3
770.00        51996.15
771.00        52056.67
772.00        52049.97
773.00        51973.67
774.00        51917.23
775.00        51968.64
776.00        51899.49
777.00        51634.72
778.00        51703.08
779.00        51769.66
780.00        51528.43
781.00        51568.38
782.00        51529.97
783.00        51510.79
784.00        51443.59
785.00        51153.42
786.00        51296.64
787.00        51332.29
788.00        51105.31
789.00        51356.09
790.00        51187.75
791.00        51068.26
792.00        51115.14
793.00        50889.77
794.00        50890.41
795.00        50890.98
796.00        50724.32
797.00        50717.15
798.00        50574.49
799.00        50485.52
800.00         50631.7
801.00        50420.21
802.00        50363.02
803.00        50371.48
804.00         50260.4
805.00        50277.98
806.00        50230.74
807.00         50233.4
808.00         50128.8
809.00           50226
810.00        50064.66
811.00        49882.61
812.00        49916.74
813.00        49789.13
814.00        49808.11
815.00        49856.51
816.00        49773.54
817.00        49775.47
818.00        49678.48
819.00        49603.22
820.00        49620.17
821.00        49395.99
822.00         49371.8
823.00        49386.76
824.00        49314.58
825.00        49453.74
826.00        49255.86
827.00        49338.61
828.00        49537.04
829.00        49357.02
830.00        49201.48
831.00        49223.64
832.00         49334.9
833.00        49277.29
834.00        49484.26
835.00        49429.66
836.00        49362.93
837.00        49479.73
838.00         49560.4
839.00        49591.76
840.00        49749.54
841.00           49613
842.00        49514.72
843.00        49770.55
844.00        49839.39
845.00        49792.58
846.00        49911.53
847.00        50126.77
848.00        50110.87
849.00        49993.63
850.00        50389.55
851.00         50322.9
852.00         50305.3
853.00        50265.52
854.00        50523.94
855.00           50630
856.00        50728.85
857.00         50944.3
858.00         50676.5
859.00         50946.5
860.00        51134.01
861.00        51077.45
862.00        51043.82
863.00        50962.25
864.00        51054.54
865.00        51275.69
866.00        51358.79
867.00        51104.18
868.00           51439
869.00        51493.33
870.00        51439.85
871.00        51467.96
872.00        51269.07
873.00        51153.45
874.00        51141.16
875.00        51141.22
876.00         51182.5
877.00        51108.88
878.00        51357.78
879.00        51471.93
880.00        51417.85
881.00        51634.87
882.00        51815.99
883.00        51872.89
884.00        51827.41
885.00        51863.36
886.00        52179.54
887.00        52227.45
888.00        52309.27
889.00        52549.57
890.00        52603.06
891.00        52778.64
892.00        52907.82
893.00        52964.56
894.00        52928.43
895.00        52931.51
896.00        52764.62
897.00        52768.16
898.00        52908.81
899.00        52641.13
900.00        52730.46
901.00        52799.27
902.00        52811.84
903.00        52476.17
904.00        52682.95
905.00        52569.52
906.00        52253.12
907.00        52372.58
908.00        52581.91
909.00        52369.27
910.00        52058.26
911.00        51962.77
912.00        51624.87
913.00        51607.89
914.00        51402.46
915.00        51094.46
916.00        50719.68
917.00        50424.93
918.00        50354.58
919.00        50154.93
920.00        49684.45
921.00        49358.75
922.00        49199.68
923.00        48644.86
924.00        48038.58
925.00        47778.65
926.00        47260.28
927.00        46695.72
928.00        46047.81
929.00        45493.36
930.00        44785.26
931.00        44029.48
932.00         43029.6
933.00        41700.71
934.00        40020.73
935.00        38197.71
936.00        35947.02
937.00        33470.35
938.00        31317.54
939.00        29519.99
940.00        28073.83
941.00        27004.36
942.00        26327.24
943.00        25975.32
944.00        26072.22
945.00        26122.62
946.00           26487
947.00        27112.86
948.00        27672.51
949.00        28212.38
950.00        29083.86
951.00        29840.16
952.00        30509.33
953.00         31406.2
954.00        31860.79
955.00        32634.04
956.00        33055.06
957.00        33549.65
958.00         34383.1
959.00        34751.66
960.00        35133.92
961.00        35354.89
962.00        35531.63
963.00        35825.12
964.00        36003.59
965.00        35826.23
966.00        35735.25
967.00        35732.74
968.00         35714.5
969.00        35718.79
970.00        35879.35
971.00        35811.68
972.00        35841.67
973.00        35835.04
974.00        35723.81
975.00        35722.35
976.00        36008.01
977.00         35858.1
978.00        35537.04
979.00        35319.67
980.00        35125.26
981.00        34800.46
982.00        34493.77
983.00        34271.66
984.00           34119
985.00        33908.44
986.00        33537.08
987.00        33171.79
988.00        32986.59
989.00        32358.46
990.00        31641.88
991.00        31095.59
992.00        30214.39
993.00        29392.63
994.00        28494.85
995.00        27545.23
996.00        26652.25
997.00        25825.55
998.00        24936.22
999.00        23845.42
1000.00        23049.13
1001.00        22024.19
1002.00        21077.18
1003.00        20318.21
1004.00        19405.96
1005.00        18512.13
1006.00        17633.03
1007.00        16793.41
1008.00        16003.96
1009.00        15208.14
1010.00        14362.51
1011.00        13543.05
1012.00        12718.91
1013.00        12035.53
1014.00        11321.08
1015.00        10547.11
1016.00        9862.272
1017.00        9309.686
1018.00        8627.612
1019.00        8064.119
1020.00        7367.668
