SpectraSmart Spectrum 2.6.17.30709
--------- Device Information -----------
Spectrum Name :  Spectrum_0
Saving Time :  2021/11/14 21:03:59
Spectro-Module Model Name : SE1030-VNIR
Spectro-Module Serial Number : OS361AC55010184
Wavelength Start : 350
Wavelength End : 1020
Wavelength Unit : Wavelength(nm)
Spectrum Unit : Intensity(Counts)
-----------Spectrum Setting ------------
Integration Time : 50ms
Average : 1
Boxcar : 0
Background removal :  enabled
linearity correction :  enabled
SC :  disabled
Intensity correction :  disabled
DWT denoise :  enabled
savitzky-golay :  disabled
FFT :  disabled
Running average :  disabled
Kalman :  disabled
High pass :  disabled
---------------BEGIN--------------------
Wavelength(nm)          Intensity(Counts)
350.00        47.22551
351.00        52.40804
352.00        55.72566
353.00        39.59842
354.00        44.69138
355.00         60.4387
356.00        56.51227
357.00        67.58978
358.00        81.19997
359.00        70.76807
360.00        67.92429
361.00        71.12868
362.00        66.78458
363.00        64.30209
364.00        68.03359
365.00        78.63445
366.00        77.02304
367.00        65.24918
368.00          55.004
369.00        60.25402
370.00        69.36713
371.00        60.99383
372.00        67.75791
373.00        80.60227
374.00        74.80806
375.00        71.70126
376.00        71.24528
377.00        64.97748
378.00        69.78454
379.00        75.82069
380.00        67.41187
381.00        62.42614
382.00        67.08134
383.00        77.22099
384.00        88.00487
385.00        85.92554
386.00        62.12277
387.00        73.95899
388.00        94.96581
389.00        75.68178
390.00        73.41973
391.00         82.6405
392.00        79.78973
393.00        81.82984
394.00        88.87479
395.00        96.06893
396.00        97.75439
397.00         93.7681
398.00        87.60533
399.00        89.88741
400.00        90.30522
401.00        77.89223
402.00        81.84343
403.00        88.04106
404.00        78.50836
405.00        83.72013
406.00        90.27458
407.00        82.63966
408.00        85.52096
409.00        89.14229
410.00        84.28067
411.00         92.3838
412.00        99.33795
413.00        92.18926
414.00        85.00036
415.00        79.77969
416.00        79.65889
417.00        92.77492
418.00        105.6889
419.00        106.6617
420.00        102.0838
421.00        92.57308
422.00        84.13997
423.00        84.06659
424.00        93.72546
425.00        101.6972
426.00        83.25462
427.00        65.28189
428.00        68.32394
429.00         96.2978
430.00        109.6722
431.00         99.8334
432.00        97.44527
433.00        103.0301
434.00        107.0099
435.00         88.3393
436.00        90.02826
437.00         107.972
438.00        108.8509
439.00         88.2744
440.00        71.72473
441.00           95.47
442.00        95.43576
443.00        85.62447
444.00        106.3683
445.00        105.4007
446.00        91.36024
447.00        89.49834
448.00        93.91936
449.00        98.26717
450.00        96.64046
451.00         94.3289
452.00        96.45037
453.00        104.8884
454.00        105.8102
455.00        112.6336
456.00        129.2101
457.00        120.8402
458.00        109.9779
459.00        112.8446
460.00        109.2773
461.00        114.7812
462.00        124.6836
463.00        101.8747
464.00        99.91045
465.00        123.0446
466.00        122.0652
467.00        117.9886
468.00        116.8534
469.00        116.2033
470.00        112.7913
471.00        110.5613
472.00        113.6968
473.00        125.9977
474.00        127.7646
475.00         104.921
476.00        125.2037
477.00        152.6137
478.00        139.4568
479.00        135.1115
480.00        130.4569
481.00        120.3234
482.00        134.7625
483.00        148.4338
484.00        145.0785
485.00        144.2057
486.00        142.4184
487.00         142.333
488.00        155.1445
489.00         158.197
490.00        153.8332
491.00        168.9866
492.00        158.6342
493.00        147.3849
494.00        182.6689
495.00        188.1967
496.00        176.8848
497.00        186.5751
498.00        188.9751
499.00        188.0072
500.00        190.2023
501.00        177.8155
502.00        181.2674
503.00        209.7488
504.00        195.0111
505.00        201.9987
506.00         240.093
507.00        214.5441
508.00        225.3467
509.00        263.5912
510.00        236.4954
511.00        234.6462
512.00        254.9107
513.00        255.6653
514.00        263.3017
515.00        275.1803
516.00        281.9953
517.00        283.2745
518.00        276.0056
519.00        267.6818
520.00         296.004
521.00         317.383
522.00        318.0949
523.00        365.3803
524.00        367.5805
525.00        334.5212
526.00        365.6422
527.00        373.8192
528.00        367.2592
529.00        391.2889
530.00        409.4901
531.00        421.2748
532.00        434.3183
533.00        450.3153
534.00        466.1712
535.00        480.2254
536.00        500.3405
537.00        520.8862
538.00        538.5142
539.00        554.1682
540.00         567.432
541.00        578.4771
542.00        586.0642
543.00        618.3096
544.00        650.8663
545.00        654.1535
546.00        676.1857
547.00        701.3781
548.00        713.9481
549.00        746.4708
550.00        768.5943
551.00        773.7013
552.00        796.7914
553.00         815.358
554.00        827.4404
555.00        843.2838
556.00        886.1561
557.00        931.8107
558.00        948.2971
559.00        972.1729
560.00        986.4438
561.00        984.8719
562.00        1016.852
563.00        1046.807
564.00        1065.833
565.00        1112.021
566.00        1131.545
567.00        1140.982
568.00        1183.251
569.00        1217.649
570.00        1231.894
571.00        1233.049
572.00        1264.274
573.00        1287.863
574.00        1293.417
575.00        1358.842
576.00        1378.242
577.00        1353.504
578.00        1370.891
579.00        1408.649
580.00        1448.288
581.00        1475.674
582.00         1515.52
583.00        1551.049
584.00        1569.753
585.00        1588.218
586.00        1607.699
587.00        1624.447
588.00        1630.311
589.00        1655.524
590.00        1692.653
591.00        1717.229
592.00        1739.596
593.00        1739.354
594.00        1724.743
595.00        1770.067
596.00        1813.569
597.00        1826.301
598.00          1822.7
599.00        1846.688
600.00        1857.782
601.00        1811.926
602.00        1859.464
603.00        1904.489
604.00        1886.174
605.00        1938.194
606.00        1998.093
607.00        2035.477
608.00        2055.689
609.00        2082.651
610.00        2116.549
611.00        2146.383
612.00        2175.818
613.00        2215.102
614.00        2264.999
615.00        2315.114
616.00        2341.517
617.00        2367.393
618.00        2431.578
619.00        2452.103
620.00         2475.97
621.00        2549.092
622.00        2629.704
623.00        2650.603
624.00        2639.491
625.00        2706.089
626.00        2799.277
627.00         2847.54
628.00         2824.46
629.00        2890.787
630.00        2960.327
631.00        2989.231
632.00        3100.142
633.00        3164.465
634.00        3185.964
635.00        3233.252
636.00        3285.136
637.00        3332.187
638.00        3379.292
639.00        3488.888
640.00         3559.13
641.00        3598.559
642.00        3704.176
643.00        3724.743
644.00        3751.907
645.00        3876.708
646.00        3957.517
647.00        4028.168
648.00        4109.272
649.00         4196.17
650.00        4264.867
651.00        4328.386
652.00        4408.843
653.00        4478.641
654.00        4571.159
655.00        4677.032
656.00        4734.297
657.00        4834.021
658.00        4947.904
659.00        5025.589
660.00        5120.601
661.00        5223.939
662.00        5313.447
663.00        5353.543
664.00        5471.776
665.00        5598.083
666.00        5643.012
667.00        5772.505
668.00          5897.8
669.00        5968.521
670.00        6023.418
671.00        6154.954
672.00        6305.996
673.00        6401.217
674.00         6525.18
675.00         6687.72
676.00         6837.36
677.00        6881.373
678.00        7003.886
679.00        7142.089
680.00        7207.269
681.00        7320.764
682.00        7482.657
683.00        7648.495
684.00        7765.584
685.00        7850.701
686.00        7987.754
687.00         8191.69
688.00        8252.788
689.00        8401.162
690.00        8622.305
691.00        8685.851
692.00         8859.21
693.00        9003.503
694.00        9052.909
695.00        9301.048
696.00        9411.219
697.00        9486.491
698.00        9712.671
699.00        9770.252
700.00        9843.776
701.00        10008.27
702.00        10149.02
703.00        10285.13
704.00        10421.24
705.00         10568.4
706.00        10709.04
707.00         10867.3
708.00        10985.12
709.00        11050.46
710.00        11206.55
711.00        11357.89
712.00        11456.12
713.00        11569.27
714.00        11667.75
715.00        11756.68
716.00         11852.9
717.00        11941.91
718.00        12041.55
719.00        12053.67
720.00        12067.53
721.00        12170.27
722.00        12279.23
723.00        12297.68
724.00        12389.11
725.00        12492.22
726.00        12654.57
727.00        12820.88
728.00        12852.16
729.00        12935.86
730.00        13054.01
731.00        13064.04
732.00         13194.3
733.00        13286.01
734.00        13329.06
735.00        13509.06
736.00        13603.24
737.00        13623.41
738.00        13660.99
739.00        13789.18
740.00        13910.77
741.00        14025.02
742.00        14150.89
743.00        14147.63
744.00        14203.12
745.00        14314.98
746.00        14350.68
747.00        14396.48
748.00        14452.57
749.00        14565.01
750.00        14659.49
751.00        14690.25
752.00         14680.9
753.00        14741.91
754.00        14671.82
755.00         14708.3
756.00        14888.08
757.00        14839.25
758.00        14901.14
759.00        14969.83
760.00        14979.01
761.00        14933.67
762.00        14950.57
763.00        14985.61
764.00        15004.08
765.00        15016.81
766.00        15053.93
767.00         15141.5
768.00        15246.76
769.00        15285.32
770.00        15239.91
771.00        15142.16
772.00        15113.42
773.00        15078.72
774.00        15242.23
775.00        15248.27
776.00        15056.38
777.00        15309.34
778.00        15248.54
779.00        15137.58
780.00        15121.11
781.00        15173.79
782.00        15309.63
783.00        15335.49
784.00        15184.67
785.00        15287.01
786.00           15285
787.00        15238.95
788.00        15302.03
789.00        15389.26
790.00        15331.25
791.00        15234.98
792.00         15251.3
793.00        15169.65
794.00        15201.74
795.00        15280.83
796.00        15255.96
797.00         15191.7
798.00         15118.5
799.00        15102.63
800.00        15157.65
801.00        15170.19
802.00        15198.27
803.00        15235.06
804.00        15258.67
805.00        15348.77
806.00        15359.94
807.00        15341.97
808.00        15376.31
809.00        15268.71
810.00        15280.04
811.00        15284.96
812.00        15151.51
813.00        15312.14
814.00        15205.27
815.00        15110.62
816.00        15182.86
817.00        15291.82
818.00        15321.51
819.00        15215.89
820.00        15306.41
821.00        15268.45
822.00        15182.51
823.00        15175.63
824.00        15287.81
825.00        15356.95
826.00         15332.2
827.00        15245.99
828.00        15253.06
829.00        15270.84
830.00        15310.48
831.00        15326.58
832.00        15368.66
833.00         15338.6
834.00        15447.45
835.00        15400.61
836.00        15343.05
837.00        15501.93
838.00        15528.03
839.00        15555.95
840.00        15617.98
841.00        15637.47
842.00        15502.04
843.00        15675.86
844.00        15658.21
845.00        15684.95
846.00         15815.6
847.00        15850.22
848.00        15861.37
849.00        15914.13
850.00        15969.17
851.00        15935.01
852.00        15996.24
853.00        16100.38
854.00        16065.75
855.00        16119.17
856.00        16153.39
857.00        16119.45
858.00        16098.11
859.00        16304.15
860.00        16353.66
861.00        16377.09
862.00        16406.03
863.00        16294.96
864.00         16353.3
865.00        16428.36
866.00        16485.95
867.00        16574.18
868.00        16650.02
869.00         16600.8
870.00        16574.98
871.00        16624.04
872.00        16743.87
873.00         16572.7
874.00        16523.64
875.00        16594.97
876.00        16549.96
877.00         16494.6
878.00        16574.35
879.00        16690.31
880.00        16635.32
881.00        16708.12
882.00        16832.28
883.00        16892.58
884.00        16889.79
885.00        16930.93
886.00        16978.81
887.00        17064.18
888.00        17133.06
889.00        17166.16
890.00        17274.07
891.00        17179.62
892.00        17216.63
893.00        17296.97
894.00        17272.69
895.00        17434.76
896.00        17311.96
897.00        17312.24
898.00        17384.44
899.00        17351.49
900.00        17419.49
901.00        17460.16
902.00        17400.43
903.00        17332.64
904.00        17363.75
905.00        17477.59
906.00        17327.96
907.00        17212.21
908.00        17461.71
909.00        17370.52
910.00        17275.92
911.00        17257.82
912.00        17227.98
913.00        17090.28
914.00        17113.75
915.00        17030.51
916.00        16964.32
917.00        16938.41
918.00         16764.7
919.00        16783.79
920.00        16608.68
921.00        16516.37
922.00        16506.32
923.00        16310.68
924.00        16253.81
925.00        16147.53
926.00         15975.8
927.00         15757.1
928.00         15679.6
929.00        15337.98
930.00        15168.72
931.00        14922.99
932.00        14436.73
933.00        14113.02
934.00         13577.2
935.00        12915.33
936.00         12165.6
937.00         11352.7
938.00        10622.85
939.00        10072.64
940.00        9566.242
941.00        9134.554
942.00        8845.562
943.00        8659.841
944.00        8810.794
945.00        8826.688
946.00        8983.513
947.00        9274.757
948.00        9392.395
949.00        9678.047
950.00        9909.797
951.00        10187.52
952.00         10525.7
953.00        10798.33
954.00         10976.2
955.00        11151.51
956.00         11375.6
957.00        11627.47
958.00        11829.11
959.00        11879.48
960.00        12008.53
961.00        12250.09
962.00         12391.7
963.00           12383
964.00         12480.3
965.00        12387.44
966.00        12432.56
967.00        12436.39
968.00        12416.08
969.00        12492.15
970.00        12472.05
971.00        12505.55
972.00        12538.91
973.00        12582.69
974.00        12631.65
975.00        12641.75
976.00        12704.71
977.00        12625.13
978.00        12467.77
979.00         12400.1
980.00        12400.44
981.00        12165.62
982.00        12196.47
983.00        12014.31
984.00        11909.95
985.00        11900.72
986.00        11717.14
987.00        11633.02
988.00         11554.2
989.00        11385.06
990.00        11151.94
991.00        10899.83
992.00        10607.99
993.00        10292.64
994.00        9965.395
995.00        9706.842
996.00        9411.396
997.00        9084.549
998.00         8832.57
999.00        8509.322
1000.00        8105.152
1001.00        7853.241
1002.00        7555.394
1003.00        7205.248
1004.00         6985.11
1005.00        6583.443
1006.00        6385.178
1007.00         6098.04
1008.00        5763.519
1009.00        5479.336
1010.00        5228.345
1011.00         4970.22
1012.00        4641.849
1013.00        4372.656
1014.00        4123.476
1015.00        3887.572
1016.00        3639.874
1017.00        3336.528
1018.00         3144.49
1019.00        2955.034
1020.00        2701.183
