SpectraSmart Spectrum 2.6.17.30709
--------- Device Information -----------
Spectrum Name :  Spectrum_0
Saving Time :  2021/11/14 21:02:22
Spectro-Module Model Name : SE1030-VNIR
Spectro-Module Serial Number : OS361AC55010184
Wavelength Start : 350
Wavelength End : 1020
Wavelength Unit : Wavelength(nm)
Spectrum Unit : Intensity(Counts)
-----------Spectrum Setting ------------
Integration Time : 50ms
Average : 1
Boxcar : 0
Background removal :  enabled
linearity correction :  enabled
SC :  disabled
Intensity correction :  disabled
DWT denoise :  enabled
savitzky-golay :  disabled
FFT :  disabled
Running average :  disabled
Kalman :  disabled
High pass :  disabled
---------------BEGIN--------------------
Wavelength(nm)          Intensity(Counts)
350.00        33.44542
351.00        43.71072
352.00        64.80301
353.00        62.74839
354.00        63.43095
355.00        71.44896
356.00        82.08734
357.00        69.77783
358.00        48.36914
359.00         46.7283
360.00        55.44552
361.00         65.2982
362.00        68.78972
363.00         67.0419
364.00        65.03571
365.00        67.16481
366.00        65.30879
367.00        61.93787
368.00        62.75571
369.00        73.15699
370.00        80.52059
371.00        71.95664
372.00        59.76265
373.00           62.91
374.00        95.68164
375.00        82.44709
376.00        50.95699
377.00        66.82607
378.00        85.64944
379.00        92.47305
380.00        88.18301
381.00         79.0351
382.00        75.10731
383.00        82.32865
384.00        78.78802
385.00        74.87132
386.00        90.76718
387.00        84.43551
388.00        70.82541
389.00        82.39714
390.00        74.11995
391.00        68.68085
392.00        99.49663
393.00         96.1209
394.00         79.8511
395.00        93.20937
396.00        96.01448
397.00        89.28377
398.00        85.31033
399.00        86.88657
400.00        89.97591
401.00        87.99323
402.00        78.01808
403.00         72.6111
404.00        80.86794
405.00        85.88309
406.00        83.83408
407.00        79.88995
408.00        91.31556
409.00        105.0105
410.00        105.7217
411.00         85.9935
412.00        83.08913
413.00        114.2038
414.00        97.76885
415.00        80.91306
416.00        101.1392
417.00        101.4226
418.00        90.24888
419.00        81.18075
420.00        78.38965
421.00        84.04593
422.00        92.15868
423.00        82.02348
424.00        84.75014
425.00        105.5078
426.00        98.94318
427.00        83.34139
428.00        75.65187
429.00        85.67104
430.00        94.87544
431.00        95.16631
432.00        101.8438
433.00        88.43172
434.00        68.27019
435.00        86.49608
436.00        97.07241
437.00        92.80058
438.00        98.43141
439.00         90.0491
440.00         83.0375
441.00        105.0809
442.00        103.6654
443.00        89.29453
444.00        93.67923
445.00        101.8543
446.00        100.5244
447.00        83.97012
448.00        87.21447
449.00        100.5426
450.00        102.7943
451.00        100.3847
452.00        99.81686
453.00         105.733
454.00        112.1644
455.00        113.1183
456.00        107.9608
457.00        111.7082
458.00        113.5779
459.00        109.7149
460.00        117.3651
461.00        122.4013
462.00        117.5494
463.00         107.039
464.00         104.244
465.00        109.0212
466.00        105.3888
467.00        107.3096
468.00        114.9647
469.00        122.9042
470.00        117.8532
471.00        118.9217
472.00        151.8378
473.00        144.6527
474.00        118.7838
475.00        123.4944
476.00         123.748
477.00        129.2871
478.00        146.3085
479.00        128.9972
480.00        114.7542
481.00        133.8165
482.00        147.7651
483.00        150.3969
484.00        145.8015
485.00        156.0012
486.00        164.0587
487.00        163.5661
488.00        171.6126
489.00        165.4136
490.00        154.7618
491.00        168.9821
492.00        188.8347
493.00        197.2227
494.00        185.1553
495.00        195.1627
496.00        212.3255
497.00        207.2339
498.00         213.336
499.00        221.0455
500.00         219.842
501.00        229.1256
502.00        238.1824
503.00        238.9149
504.00        224.3767
505.00        236.3656
506.00        269.7962
507.00        232.2461
508.00        252.3792
509.00        312.4315
510.00        278.2597
511.00        277.1228
512.00        302.0608
513.00        291.6188
514.00         301.313
515.00        317.6828
516.00        318.8427
517.00        336.9062
518.00        352.9884
519.00        353.1661
520.00        367.6115
521.00        376.3701
522.00        375.2368
523.00        384.3803
524.00        412.9305
525.00        440.0907
526.00        422.8502
527.00        432.7201
528.00        464.4362
529.00        479.3827
530.00        489.9958
531.00        515.6406
532.00        560.7523
533.00        552.1018
534.00        541.9788
535.00        575.5417
536.00        597.8279
537.00        626.5402
538.00        658.7043
539.00        665.0048
540.00        688.4067
541.00         729.489
542.00        757.5755
543.00        781.9678
544.00        792.6316
545.00        788.0543
546.00        829.0905
547.00        875.8505
548.00         889.482
549.00        922.8435
550.00        943.3197
551.00        945.7252
552.00        974.3397
553.00        995.0083
554.00        1013.472
555.00         1061.33
556.00        1085.023
557.00        1113.213
558.00        1179.042
559.00        1206.106
560.00        1212.103
561.00        1231.907
562.00        1275.631
563.00        1317.538
564.00        1342.318
565.00        1354.471
566.00        1397.372
567.00        1443.037
568.00        1435.577
569.00        1486.364
570.00        1546.443
571.00        1551.484
572.00        1590.841
573.00        1631.506
574.00        1658.574
575.00        1719.216
576.00        1751.381
577.00        1746.065
578.00        1739.701
579.00        1771.096
580.00        1818.376
581.00        1843.828
582.00        1867.745
583.00        1900.652
584.00        1939.098
585.00        1929.709
586.00        1960.337
587.00        2019.734
588.00        1993.743
589.00        2033.097
590.00        2089.306
591.00         2067.46
592.00        2129.139
593.00        2169.561
594.00        2132.471
595.00        2206.167
596.00        2276.185
597.00        2288.443
598.00        2266.724
599.00         2317.13
600.00        2374.124
601.00        2338.212
602.00        2334.311
603.00        2350.167
604.00        2365.919
605.00        2388.291
606.00        2456.462
607.00        2544.296
608.00         2575.83
609.00        2621.978
610.00        2662.503
611.00        2667.558
612.00        2695.879
613.00        2738.982
614.00        2787.731
615.00        2851.053
616.00        2908.449
617.00        2958.526
618.00        3011.443
619.00        3049.401
620.00        3094.831
621.00        3161.623
622.00        3214.927
623.00        3260.991
624.00        3311.684
625.00        3367.453
626.00        3467.452
627.00        3539.404
628.00        3528.158
629.00        3581.223
630.00        3679.316
631.00        3777.376
632.00        3867.357
633.00        3909.988
634.00        3950.358
635.00        4057.744
636.00        4102.113
637.00        4183.716
638.00        4345.642
639.00        4337.848
640.00        4392.196
641.00        4528.356
642.00        4578.841
643.00        4693.422
644.00        4787.473
645.00        4799.519
646.00        4946.385
647.00        5056.223
648.00        5104.625
649.00        5249.123
650.00        5335.675
651.00        5406.877
652.00        5531.088
653.00          5609.1
654.00        5701.858
655.00        5831.688
656.00         5954.25
657.00        6067.484
658.00          6163.5
659.00        6242.935
660.00        6298.372
661.00        6394.661
662.00        6554.057
663.00        6727.339
664.00        6880.833
665.00        7005.449
666.00        7116.152
667.00        7239.637
668.00        7354.495
669.00        7464.591
670.00        7617.988
671.00        7738.101
672.00        7858.261
673.00         8013.24
674.00         8076.34
675.00        8176.536
676.00        8369.005
677.00        8589.407
678.00        8694.785
679.00        8791.868
680.00        9002.987
681.00        9174.973
682.00        9323.465
683.00        9476.305
684.00        9658.613
685.00        9833.766
686.00        10002.43
687.00        10181.29
688.00        10398.44
689.00        10549.23
690.00        10687.01
691.00        10822.04
692.00        11020.42
693.00        11181.56
694.00        11292.82
695.00        11565.68
696.00        11740.26
697.00         11854.9
698.00        12042.21
699.00        12198.25
700.00         12364.4
701.00        12547.11
702.00        12692.24
703.00        12880.59
704.00        13034.37
705.00        13125.31
706.00         13421.2
707.00        13547.83
708.00        13554.68
709.00        13723.46
710.00           13925
711.00        14097.74
712.00         14238.4
713.00        14432.05
714.00        14563.52
715.00        14645.95
716.00        14740.79
717.00        14871.24
718.00        14954.09
719.00        14952.65
720.00        14939.18
721.00        15144.84
722.00        15279.76
723.00        15275.92
724.00        15303.43
725.00        15550.91
726.00        15794.07
727.00        15804.21
728.00        15874.36
729.00        15956.45
730.00        16124.84
731.00        16253.97
732.00        16334.09
733.00        16420.16
734.00        16529.18
735.00        16625.52
736.00        16815.12
737.00         16916.3
738.00        16977.46
739.00        17180.34
740.00        17274.21
741.00        17301.89
742.00        17417.92
743.00         17618.1
744.00        17690.75
745.00        17646.64
746.00        17670.82
747.00        17889.98
748.00        17993.78
749.00        17952.18
750.00        18140.73
751.00        18165.98
752.00        18221.35
753.00        18425.29
754.00        18365.52
755.00         18459.6
756.00        18460.82
757.00        18364.29
758.00        18603.15
759.00        18686.74
760.00        18619.02
761.00        18633.73
762.00         18614.5
763.00        18671.75
764.00        18736.24
765.00        18792.51
766.00        18676.17
767.00        18708.02
768.00        18869.34
769.00        18809.72
770.00        18716.21
771.00        18782.53
772.00        18954.79
773.00        18917.11
774.00        18895.88
775.00        18864.72
776.00        18937.34
777.00        18991.54
778.00        18973.26
779.00        18879.84
780.00        18809.85
781.00        18903.79
782.00        18955.45
783.00        18901.15
784.00         18846.1
785.00        18904.42
786.00        18967.11
787.00        19009.49
788.00        19027.57
789.00        18972.08
790.00        18947.34
791.00        18960.01
792.00        18978.52
793.00        18934.11
794.00        18878.15
795.00        18887.71
796.00        18960.13
797.00        18824.84
798.00        18851.25
799.00        18969.38
800.00         18951.8
801.00        18932.29
802.00        18916.33
803.00        18907.09
804.00        18906.38
805.00        18980.35
806.00        18999.25
807.00        18958.26
808.00        18901.45
809.00        18860.16
810.00         18842.9
811.00        18831.78
812.00        18816.97
813.00        18884.35
814.00        18864.41
815.00        18898.05
816.00        18915.99
817.00        19043.75
818.00        19008.31
819.00         18930.4
820.00        18986.07
821.00        18856.51
822.00        18792.93
823.00        18863.72
824.00        18944.46
825.00        18880.93
826.00        18883.94
827.00        18957.47
828.00        19026.57
829.00        19009.72
830.00        18991.94
831.00        18958.12
832.00        18988.21
833.00        19023.53
834.00        19052.17
835.00        19143.44
836.00        19199.86
837.00        19127.99
838.00        19273.94
839.00        19320.45
840.00        19283.37
841.00        19302.92
842.00        19375.99
843.00        19409.13
844.00        19441.48
845.00        19451.58
846.00        19487.49
847.00        19574.59
848.00        19691.76
849.00        19668.36
850.00        19623.39
851.00        19769.38
852.00        19802.48
853.00        19738.12
854.00        19830.31
855.00        19886.19
856.00         19917.3
857.00        19972.23
858.00        20066.43
859.00        20133.16
860.00        20190.06
861.00        20204.84
862.00        20262.72
863.00        20420.83
864.00        20356.41
865.00        20357.86
866.00        20394.15
867.00        20322.11
868.00        20568.34
869.00        20575.93
870.00        20521.21
871.00        20548.05
872.00        20507.33
873.00        20487.69
874.00        20485.54
875.00         20513.8
876.00        20569.07
877.00        20558.47
878.00        20495.02
879.00        20532.66
880.00        20611.29
881.00        20723.76
882.00        20742.02
883.00        20897.66
884.00        21095.81
885.00        21044.04
886.00        21035.86
887.00        21021.53
888.00        21233.72
889.00         21221.5
890.00        21374.02
891.00        21357.48
892.00        21365.42
893.00        21526.84
894.00        21610.42
895.00        21507.39
896.00        21575.98
897.00        21598.19
898.00        21538.88
899.00        21586.52
900.00         21569.7
901.00        21635.68
902.00         21633.9
903.00        21626.72
904.00        21622.85
905.00        21611.92
906.00        21464.73
907.00        21391.63
908.00        21375.52
909.00        21408.28
910.00        21400.12
911.00        21379.98
912.00         21328.1
913.00         21201.7
914.00        21183.69
915.00        21229.01
916.00        21135.53
917.00         21000.4
918.00        20935.46
919.00         20849.5
920.00        20649.63
921.00        20541.79
922.00        20459.61
923.00        20183.69
924.00        19979.54
925.00        19837.86
926.00        19669.56
927.00        19447.31
928.00        19252.31
929.00        18991.62
930.00        18729.03
931.00        18384.41
932.00         17947.6
933.00        17556.77
934.00        16883.55
935.00        16042.61
936.00         15100.6
937.00        14088.97
938.00        13104.45
939.00        12443.08
940.00        11806.54
941.00        11379.69
942.00         11088.8
943.00        10893.72
944.00         10939.4
945.00        11005.96
946.00        11168.81
947.00        11443.26
948.00        11688.95
949.00        12016.09
950.00        12306.39
951.00        12631.11
952.00        12994.41
953.00        13297.76
954.00        13451.93
955.00        13835.74
956.00        14107.21
957.00        14318.41
958.00        14627.58
959.00        14715.91
960.00        14936.21
961.00        15068.57
962.00        15207.04
963.00        15356.26
964.00        15308.88
965.00        15372.61
966.00        15353.29
967.00        15334.08
968.00         15345.1
969.00         15389.3
970.00        15398.09
971.00         15449.5
972.00        15510.74
973.00        15546.85
974.00         15566.5
975.00         15592.8
976.00        15573.87
977.00        15465.84
978.00        15281.33
979.00        15216.85
980.00        15194.05
981.00        15029.26
982.00        15020.55
983.00        14966.16
984.00        14804.44
985.00        14669.65
986.00        14640.29
987.00        14479.26
988.00        14370.07
989.00        14225.43
990.00        13909.35
991.00        13516.65
992.00        13219.58
993.00         12743.2
994.00        12570.29
995.00        12215.98
996.00        11714.95
997.00        11334.98
998.00        11077.54
999.00        10638.54
1000.00        10303.01
1001.00        9845.984
1002.00        9437.971
1003.00        9122.757
1004.00        8689.926
1005.00         8230.29
1006.00        7846.787
1007.00        7512.085
1008.00        7139.354
1009.00        6747.841
1010.00        6388.103
1011.00        5997.835
1012.00        5683.498
1013.00        5335.622
1014.00        5003.612
1015.00        4664.301
1016.00        4325.835
1017.00        4081.349
1018.00        3817.218
1019.00         3587.61
1020.00        3221.354
