SpectraSmart Spectrum 2.6.17.30709
--------- Device Information -----------
Spectrum Name :  Spectrum_0
Saving Time :  2021/11/14 20:39:55
Spectro-Module Model Name : SE1030-VNIR
Spectro-Module Serial Number : OS361AC55010184
Wavelength Start : 350
Wavelength End : 1020
Wavelength Unit : Wavelength(nm)
Spectrum Unit : Intensity(Counts)
-----------Spectrum Setting ------------
Integration Time : 50ms
Average : 1
Boxcar : 0
Background removal :  enabled
linearity correction :  enabled
SC :  disabled
Intensity correction :  disabled
DWT denoise :  enabled
savitzky-golay :  disabled
FFT :  disabled
Running average :  disabled
Kalman :  disabled
High pass :  disabled
---------------BEGIN--------------------
Wavelength(nm)          Intensity(Counts)
350.00        90.30334
351.00        100.3283
352.00        100.2304
353.00        68.38538
354.00        79.92705
355.00         109.252
356.00        95.36781
357.00         90.7056
358.00        97.58578
359.00        96.98727
360.00        109.3669
361.00        118.2023
362.00         99.8445
363.00        97.25597
364.00        108.5957
365.00        108.4528
366.00        122.7709
367.00         130.492
368.00        98.83788
369.00        100.2661
370.00        118.0661
371.00        101.0336
372.00        106.4008
373.00        128.0126
374.00        135.8386
375.00        131.6183
376.00        123.8463
377.00        123.3249
378.00        129.5788
379.00        131.8859
380.00        119.0915
381.00        122.0017
382.00         131.211
383.00        123.8586
384.00        122.0564
385.00        127.2148
386.00        131.4302
387.00        130.0345
388.00        121.9043
389.00        112.0586
390.00         119.315
391.00        136.9937
392.00        149.0977
393.00        141.0624
394.00        132.1799
395.00        145.7983
396.00        143.8839
397.00        133.4928
398.00        133.5022
399.00        130.6225
400.00        128.2962
401.00        130.1142
402.00        131.9721
403.00        129.2288
404.00         121.933
405.00        129.5932
406.00        140.5997
407.00        140.5762
408.00        138.8717
409.00        143.1245
410.00          154.58
411.00        152.9961
412.00        146.3391
413.00        146.2697
414.00        142.1357
415.00        146.8247
416.00        162.6126
417.00        152.8471
418.00        145.8156
419.00        158.8082
420.00        151.5105
421.00          146.06
422.00        152.6945
423.00        145.8176
424.00         141.731
425.00        149.5352
426.00        164.9559
427.00        169.9807
428.00        161.7321
429.00        168.2761
430.00        159.8932
431.00        143.1101
432.00        163.3422
433.00          183.67
434.00        185.3748
435.00        168.0781
436.00        167.7723
437.00        182.3893
438.00         183.239
439.00        171.1469
440.00        166.7367
441.00        196.2089
442.00        197.9067
443.00          184.37
444.00        196.0632
445.00        194.5565
446.00        189.6179
447.00        201.0649
448.00        209.0101
449.00        216.7821
450.00        226.6754
451.00        201.0074
452.00        179.0256
453.00         198.223
454.00        221.6259
455.00        243.5032
456.00        258.3983
457.00        249.8394
458.00        249.2354
459.00        269.3866
460.00        265.7547
461.00        269.2517
462.00        283.5787
463.00        262.9885
464.00        264.4157
465.00        294.1317
466.00        303.0147
467.00         311.249
468.00        318.2839
469.00        312.0828
470.00        322.7776
471.00        342.8929
472.00        347.8952
473.00        371.7865
474.00        390.5914
475.00        374.6258
476.00        387.6479
477.00        403.0904
478.00        387.9644
479.00        399.6535
480.00        414.0019
481.00        410.6105
482.00        429.9047
483.00        444.1054
484.00        442.0421
485.00        458.7229
486.00        479.7373
487.00        497.9976
488.00        518.7288
489.00        529.1705
490.00        528.3752
491.00        523.9544
492.00        537.7241
493.00        562.1566
494.00        576.6448
495.00        577.6428
496.00        579.6941
497.00        598.5161
498.00        600.1242
499.00        610.4709
500.00        650.3385
501.00        667.1794
502.00        684.6354
503.00        717.6064
504.00        733.1216
505.00        746.7722
506.00        768.2303
507.00        800.8201
508.00        815.7781
509.00        824.0443
510.00        869.5239
511.00        892.5436
512.00        904.5988
513.00        944.9795
514.00        974.7258
515.00        1002.168
516.00          1040.5
517.00        1073.555
518.00        1094.055
519.00         1111.95
520.00        1157.821
521.00        1227.235
522.00        1288.807
523.00        1288.041
524.00        1304.505
525.00         1369.58
526.00        1459.164
527.00        1513.184
528.00        1553.356
529.00        1637.319
530.00        1666.805
531.00        1693.555
532.00        1783.026
533.00        1851.927
534.00        1922.896
535.00        2007.594
536.00        2065.247
537.00        2103.611
538.00        2155.112
539.00        2271.311
540.00         2375.71
541.00         2443.94
542.00        2500.756
543.00        2581.713
544.00        2678.934
545.00        2763.523
546.00        2836.109
547.00        2910.957
548.00        3001.381
549.00        3117.497
550.00          3200.5
551.00        3252.972
552.00        3377.482
553.00        3482.897
554.00        3551.521
555.00        3623.629
556.00         3703.47
557.00        3796.779
558.00         3898.94
559.00        3991.686
560.00        4087.018
561.00        4190.542
562.00        4273.047
563.00        4354.771
564.00        4453.619
565.00        4576.012
566.00        4700.607
567.00        4819.758
568.00        4940.207
569.00        5002.829
570.00        5070.281
571.00        5193.167
572.00        5231.242
573.00        5283.503
574.00        5408.473
575.00        5528.678
576.00        5607.753
577.00        5668.128
578.00        5782.426
579.00        5840.475
580.00         5889.39
581.00        5999.106
582.00        6078.146
583.00         6130.94
584.00        6193.294
585.00         6316.06
586.00        6438.696
587.00        6525.159
588.00        6585.534
589.00        6644.969
590.00        6705.291
591.00        6759.339
592.00        6855.521
593.00        6957.247
594.00        7035.667
595.00        7120.247
596.00        7219.308
597.00         7305.54
598.00        7322.638
599.00         7391.33
600.00        7477.345
601.00        7502.469
602.00        7507.065
603.00        7532.423
604.00        7608.329
605.00        7683.985
606.00        7842.874
607.00        8015.737
608.00          8032.8
609.00        8143.644
610.00        8282.694
611.00         8333.05
612.00        8529.821
613.00         8685.78
614.00         8730.33
615.00        8882.227
616.00        9035.621
617.00        9145.754
618.00        9222.037
619.00         9367.25
620.00        9548.532
621.00        9698.646
622.00        9809.875
623.00        9952.184
624.00        10139.55
625.00        10299.27
626.00        10483.04
627.00        10646.81
628.00        10751.46
629.00        10951.54
630.00        11123.63
631.00        11240.91
632.00        11511.71
633.00        11756.27
634.00        11915.63
635.00        12038.48
636.00        12218.53
637.00        12466.84
638.00        12727.99
639.00        12890.75
640.00        13117.46
641.00        13406.47
642.00        13620.65
643.00        13824.52
644.00        14059.03
645.00        14329.83
646.00        14514.38
647.00        14763.99
648.00        15069.23
649.00        15239.61
650.00        15538.35
651.00        15867.68
652.00         16077.2
653.00        16343.05
654.00        16588.96
655.00        16803.05
656.00        17052.11
657.00        17399.63
658.00        17745.94
659.00        17995.52
660.00        18362.18
661.00        18665.29
662.00         18867.8
663.00        19150.11
664.00        19541.76
665.00        19896.99
666.00        20112.74
667.00        20468.32
668.00        20873.74
669.00        21215.27
670.00        21449.47
671.00        21826.52
672.00         22280.6
673.00        22624.41
674.00         22888.4
675.00        23160.03
676.00        23581.86
677.00        24028.88
678.00        24341.46
679.00        24650.78
680.00        25152.86
681.00        25496.19
682.00        25943.11
683.00        26424.39
684.00        26691.71
685.00        27174.24
686.00        27690.15
687.00        28020.14
688.00        28316.26
689.00        28746.47
690.00        29276.52
691.00         29723.5
692.00        30206.54
693.00         30583.8
694.00        30863.54
695.00        31368.68
696.00        31768.45
697.00        32147.84
698.00        32669.52
699.00        33177.34
700.00        33390.27
701.00        33566.38
702.00        34262.35
703.00        34630.84
704.00        34883.95
705.00        35353.64
706.00        35791.27
707.00        36055.07
708.00         36262.8
709.00        36677.07
710.00        37133.35
711.00        37523.58
712.00         37723.1
713.00        38153.79
714.00         38457.7
715.00        38643.92
716.00        38834.35
717.00         38952.6
718.00        39182.05
719.00        39400.77
720.00        39393.02
721.00        39489.53
722.00        39748.88
723.00        40059.53
724.00         40214.1
725.00        40465.93
726.00        40769.69
727.00        41053.18
728.00        41207.65
729.00        41472.69
730.00        41697.81
731.00        41986.95
732.00        41966.24
733.00        42291.92
734.00        42642.13
735.00         42909.8
736.00        43014.14
737.00        43079.22
738.00        43269.39
739.00        43766.33
740.00        43968.08
741.00        44041.71
742.00        44126.71
743.00        44455.46
744.00        44586.82
745.00        44611.44
746.00        44647.43
747.00        45039.32
748.00        45122.79
749.00        45032.03
750.00        45536.61
751.00        45467.84
752.00         45400.7
753.00        45733.75
754.00        45905.64
755.00        45973.52
756.00         45914.5
757.00        45908.56
758.00         45872.1
759.00        46176.29
760.00        46283.97
761.00        45821.53
762.00        46113.55
763.00        46302.94
764.00         46190.4
765.00        46073.34
766.00        46317.22
767.00           46379
768.00        46133.56
769.00        46193.98
770.00           46111
771.00        46084.78
772.00        46173.26
773.00        46123.77
774.00        46040.51
775.00        45934.75
776.00        45781.16
777.00        45910.78
778.00         45842.1
779.00        45789.07
780.00        45686.83
781.00        45628.71
782.00        45612.05
783.00        45716.52
784.00        45765.89
785.00        45407.05
786.00        45520.48
787.00        45474.07
788.00         45515.1
789.00        45470.66
790.00        45308.37
791.00        45140.04
792.00        45043.35
793.00        44927.72
794.00        44832.18
795.00        44878.39
796.00           45019
797.00        44710.57
798.00        44627.41
799.00        44718.98
800.00        44731.93
801.00        44580.54
802.00        44620.18
803.00        44516.38
804.00        44089.55
805.00        44240.22
806.00         44408.9
807.00        44374.75
808.00        44194.45
809.00        44143.95
810.00        43986.61
811.00        43924.63
812.00        44070.86
813.00         43962.2
814.00         43824.6
815.00        43736.57
816.00        43684.07
817.00        43641.94
818.00        43520.26
819.00        43432.91
820.00        43513.89
821.00        43525.62
822.00        43404.21
823.00        43458.29
824.00        43413.91
825.00        43558.21
826.00        43388.87
827.00        43293.93
828.00        43345.16
829.00         43064.3
830.00        43087.37
831.00        43212.79
832.00        43294.36
833.00        43388.08
834.00        43185.89
835.00        43279.27
836.00        43503.38
837.00           43415
838.00        43390.83
839.00         43581.3
840.00        43587.89
841.00        43229.65
842.00        43446.98
843.00        43606.87
844.00        43674.62
845.00        43749.45
846.00        43673.73
847.00        43605.91
848.00        43733.96
849.00        43908.99
850.00        43972.28
851.00        44164.76
852.00           43721
853.00        44102.53
854.00        44220.53
855.00        44110.64
856.00        44217.46
857.00        44334.46
858.00        44232.62
859.00        44425.77
860.00        44400.39
861.00        44442.45
862.00         44691.2
863.00        44712.09
864.00        44624.76
865.00        44720.75
866.00        44895.08
867.00        44693.91
868.00        45057.75
869.00        44793.83
870.00        45013.25
871.00        44967.66
872.00         44915.3
873.00        44863.25
874.00        44885.33
875.00        44624.61
876.00        44523.28
877.00        44361.53
878.00        44504.24
879.00        44777.77
880.00        44890.37
881.00        44767.07
882.00        44802.14
883.00        44909.88
884.00        45015.84
885.00        45088.12
886.00        45333.12
887.00        45374.64
888.00        45335.95
889.00        45483.35
890.00        45793.17
891.00        46007.41
892.00         46009.1
893.00        45928.35
894.00        45904.14
895.00        45896.09
896.00        45942.68
897.00        45993.99
898.00        46016.52
899.00        46002.55
900.00        46052.07
901.00        46065.99
902.00        45786.74
903.00        45643.28
904.00           45740
905.00        45825.77
906.00        45432.39
907.00        45175.53
908.00        45484.89
909.00        45170.46
910.00        45166.86
911.00        45036.59
912.00        44735.95
913.00        44732.13
914.00        44502.34
915.00        44239.64
916.00        43987.61
917.00        43865.53
918.00         43431.7
919.00        43156.34
920.00        43033.02
921.00        42771.75
922.00         42505.1
923.00        41885.55
924.00        41486.26
925.00         41389.6
926.00         40971.3
927.00        40207.49
928.00        39943.55
929.00        39413.66
930.00        38759.02
931.00        38012.07
932.00         37197.3
933.00        36306.37
934.00        34972.68
935.00        33058.11
936.00         30960.6
937.00         29013.8
938.00        27133.64
939.00        25555.62
940.00        24163.36
941.00        23175.47
942.00        22669.06
943.00        22361.29
944.00        22348.93
945.00        22549.05
946.00        22924.95
947.00        23371.09
948.00        23980.98
949.00        24439.79
950.00        25026.78
951.00        25644.89
952.00        26267.74
953.00        26920.53
954.00        27327.95
955.00         28098.8
956.00        28630.01
957.00        28980.16
958.00        29476.74
959.00         29750.8
960.00        30192.28
961.00        30400.63
962.00        30737.21
963.00        30859.49
964.00        30925.96
965.00         30875.2
966.00        30615.08
967.00        30616.73
968.00        30806.76
969.00        30776.13
970.00        30790.47
971.00        30834.21
972.00         31026.6
973.00        31022.84
974.00        30852.54
975.00        30977.38
976.00        30892.15
977.00        30801.54
978.00        30586.66
979.00        30308.96
980.00        30123.03
981.00        30019.45
982.00        29746.94
983.00         29503.8
984.00        29276.51
985.00        29016.82
986.00        28772.36
987.00        28558.72
988.00         28314.2
989.00        27803.87
990.00        27255.78
991.00        26688.34
992.00         25799.9
993.00        25142.39
994.00        24533.96
995.00        23675.16
996.00        22887.62
997.00         22259.9
998.00        21455.53
999.00        20643.85
1000.00        19947.91
1001.00        19183.19
1002.00         18363.3
1003.00        17586.61
1004.00        16957.64
1005.00        16251.43
1006.00        15554.72
1007.00         14798.5
1008.00        14022.19
1009.00        13327.82
1010.00        12708.86
1011.00        12014.34
1012.00        11236.53
1013.00        10586.11
1014.00        9952.719
1015.00        9312.296
1016.00        8714.374
1017.00         8118.87
1018.00        7401.934
1019.00        6951.106
1020.00        6293.639
