SpectraSmart Spectrum 2.6.17.30709
--------- Device Information -----------
Spectrum Name :  Spectrum_0
Saving Time :  2021/11/14 20:40:35
Spectro-Module Model Name : SE1030-VNIR
Spectro-Module Serial Number : OS361AC55010184
Wavelength Start : 350
Wavelength End : 1020
Wavelength Unit : Wavelength(nm)
Spectrum Unit : Intensity(Counts)
-----------Spectrum Setting ------------
Integration Time : 50ms
Average : 1
Boxcar : 0
Background removal :  enabled
linearity correction :  enabled
SC :  disabled
Intensity correction :  disabled
DWT denoise :  enabled
savitzky-golay :  disabled
FFT :  disabled
Running average :  disabled
Kalman :  disabled
High pass :  disabled
---------------BEGIN--------------------
Wavelength(nm)          Intensity(Counts)
350.00         68.5871
351.00        69.23813
352.00        83.59772
353.00         90.7852
354.00        101.5101
355.00        106.4852
356.00        94.27106
357.00        92.39531
358.00        96.56374
359.00        88.40746
360.00        97.14346
361.00        108.4965
362.00        94.40498
363.00        91.39169
364.00        96.60863
365.00        88.77866
366.00        112.4506
367.00        139.1458
368.00         119.353
369.00        111.5052
370.00        117.4408
371.00        114.5266
372.00        112.9139
373.00         115.865
374.00        126.9427
375.00        116.5853
376.00        102.9616
377.00         118.103
378.00        115.4786
379.00        97.96366
380.00        88.75227
381.00        101.6456
382.00        120.0192
383.00        118.0967
384.00        116.5132
385.00        120.8121
386.00        129.0298
387.00        120.1383
388.00        108.4387
389.00        118.4156
390.00        116.5666
391.00        113.8601
392.00        130.4987
393.00        131.7006
394.00        124.6176
395.00        126.4103
396.00        123.8089
397.00        115.2396
398.00        106.3749
399.00        108.7052
400.00        124.7979
401.00        147.3063
402.00         129.104
403.00        112.9633
404.00        143.3174
405.00        132.2771
406.00        114.9034
407.00        135.1736
408.00         139.775
409.00        133.5092
410.00        129.6358
411.00        120.1292
412.00        118.4522
413.00        131.2735
414.00        127.5393
415.00        131.8004
416.00        154.1747
417.00        121.3516
418.00         105.955
419.00        146.1522
420.00        134.2056
421.00        121.7451
422.00        138.2433
423.00        125.4698
424.00        126.1066
425.00        149.1031
426.00         136.617
427.00        131.7732
428.00        147.7946
429.00        145.4058
430.00        147.1886
431.00        151.2973
432.00         131.045
433.00        123.8669
434.00        138.8427
435.00        161.3459
436.00         160.237
437.00        146.8805
438.00        161.6747
439.00        172.8906
440.00        172.6319
441.00        168.1089
442.00        163.0525
443.00        162.4185
444.00        166.9073
445.00        178.1406
446.00        186.6254
447.00        185.1616
448.00        182.4781
449.00        186.5764
450.00        198.8512
451.00        192.4487
452.00        189.0304
453.00        206.2272
454.00        202.9282
455.00        198.3067
456.00         210.045
457.00        223.3801
458.00        233.6836
459.00         239.011
460.00         249.109
461.00        250.1182
462.00        242.0091
463.00        247.6547
464.00        254.8697
465.00        261.3207
466.00        273.5452
467.00         280.999
468.00        278.2909
469.00         262.212
470.00        284.4638
471.00        319.9486
472.00        313.1466
473.00        319.3516
474.00        327.1844
475.00        311.3076
476.00        331.2648
477.00        349.0036
478.00          326.05
479.00        333.7477
480.00        349.0855
481.00        348.8828
482.00        374.5908
483.00        390.3018
484.00         382.816
485.00        407.4883
486.00        417.5124
487.00         411.293
488.00        456.2991
489.00        471.7934
490.00        453.8969
491.00        460.3245
492.00        474.1155
493.00        487.1993
494.00         494.637
495.00        499.5395
496.00        508.9496
497.00        525.3225
498.00         553.387
499.00        566.9548
500.00        554.3675
501.00        578.6146
502.00        600.9965
503.00        597.9968
504.00        627.8994
505.00         652.167
506.00        654.5963
507.00        661.7673
508.00        670.3389
509.00        689.0275
510.00        729.2027
511.00        760.0248
512.00        778.2893
513.00        797.5316
514.00        824.6876
515.00        859.0764
516.00        892.8848
517.00         937.799
518.00        960.8988
519.00        954.6425
520.00        973.1924
521.00        1032.325
522.00        1102.235
523.00        1093.458
524.00         1105.95
525.00        1165.921
526.00        1213.011
527.00        1277.453
528.00        1332.547
529.00        1349.725
530.00        1402.643
531.00        1481.622
532.00        1545.218
533.00        1536.697
534.00        1557.715
535.00        1667.852
536.00        1729.336
537.00         1781.03
538.00        1850.196
539.00        1940.284
540.00        2000.877
541.00        2046.998
542.00        2133.675
543.00        2191.554
544.00        2230.724
545.00        2287.792
546.00        2377.702
547.00         2466.62
548.00        2528.764
549.00        2608.994
550.00        2684.898
551.00        2742.744
552.00        2787.808
553.00        2865.834
554.00        2973.642
555.00        3075.623
556.00        3119.828
557.00        3163.253
558.00        3276.609
559.00        3313.571
560.00        3395.856
561.00        3582.346
562.00         3609.25
563.00         3661.83
564.00        3788.978
565.00        3826.901
566.00        3898.081
567.00        4016.369
568.00        4138.795
569.00        4170.157
570.00        4204.414
571.00        4337.812
572.00        4420.433
573.00        4490.999
574.00        4575.902
575.00        4662.743
576.00        4675.032
577.00        4684.899
578.00        4860.339
579.00        4932.915
580.00        4957.564
581.00        5072.856
582.00        5124.331
583.00        5179.486
584.00        5282.446
585.00         5354.22
586.00        5391.165
587.00        5419.866
588.00        5478.555
589.00        5600.035
590.00        5704.403
591.00        5712.393
592.00        5798.575
593.00        5862.969
594.00        5855.597
595.00          5982.5
596.00        6119.789
597.00        6186.687
598.00        6181.694
599.00        6225.604
600.00        6289.234
601.00        6295.392
602.00        6260.545
603.00         6296.68
604.00        6438.168
605.00        6494.037
606.00        6573.546
607.00        6690.336
608.00        6771.431
609.00        6870.976
610.00        6980.286
611.00        7076.718
612.00        7153.871
613.00        7240.874
614.00        7350.179
615.00        7445.709
616.00        7564.059
617.00        7692.131
618.00        7795.453
619.00        7897.307
620.00        8001.605
621.00        8109.647
622.00        8213.588
623.00        8350.085
624.00        8514.561
625.00        8640.441
626.00        8839.044
627.00        8997.386
628.00         9011.67
629.00        9205.042
630.00        9383.072
631.00        9459.675
632.00        9712.945
633.00        9869.152
634.00        9955.113
635.00        10141.78
636.00        10314.64
637.00        10517.37
638.00        10758.08
639.00        10928.49
640.00        11065.72
641.00         11235.5
642.00        11496.71
643.00        11665.02
644.00        11840.59
645.00         12117.3
646.00        12218.38
647.00        12406.69
648.00        12715.37
649.00        12908.53
650.00        13092.37
651.00        13299.62
652.00        13539.83
653.00        13851.42
654.00        14084.73
655.00        14219.47
656.00        14394.56
657.00        14682.56
658.00        14956.68
659.00        15099.57
660.00         15397.3
661.00        15660.45
662.00        15863.56
663.00        16271.29
664.00        16504.72
665.00        16694.92
666.00        17066.12
667.00         17365.5
668.00        17643.07
669.00        17913.73
670.00        18114.48
671.00        18468.73
672.00        18869.77
673.00        19144.85
674.00        19464.67
675.00        19698.91
676.00        19910.49
677.00         20345.3
678.00        20639.29
679.00        20891.71
680.00         21250.5
681.00        21595.82
682.00        21898.35
683.00        22204.84
684.00        22582.94
685.00        23048.31
686.00           23453
687.00        23734.41
688.00         24101.7
689.00        24393.13
690.00        24674.32
691.00        25091.68
692.00        25476.15
693.00        25792.71
694.00        26090.35
695.00        26573.46
696.00        27030.14
697.00        27369.24
698.00        27631.35
699.00        27898.86
700.00           28251
701.00        28630.71
702.00        28924.27
703.00        29136.35
704.00        29460.09
705.00        29970.49
706.00        30325.31
707.00        30590.43
708.00        30701.01
709.00        31136.55
710.00        31483.37
711.00        31818.53
712.00        32130.94
713.00        32260.01
714.00         32517.3
715.00        32837.56
716.00        33043.56
717.00        33183.54
718.00        33246.46
719.00        33327.17
720.00        33462.82
721.00        33633.55
722.00         33703.7
723.00        33771.93
724.00         34353.5
725.00        34574.37
726.00        34681.91
727.00        35062.85
728.00        35254.98
729.00        35427.53
730.00        35579.61
731.00        35708.97
732.00        35866.41
733.00        35999.08
734.00         36149.7
735.00        36331.12
736.00        36541.32
737.00        36755.36
738.00        36989.75
739.00        37170.44
740.00        37383.78
741.00        37757.57
742.00        37781.65
743.00        38041.05
744.00        38114.63
745.00        38116.84
746.00        38395.02
747.00        38332.47
748.00        38298.49
749.00        38419.42
750.00        38644.51
751.00        38652.35
752.00        38760.72
753.00        38984.07
754.00        38909.38
755.00        39049.93
756.00        39231.31
757.00        39027.86
758.00        39004.76
759.00        39215.37
760.00        39331.63
761.00        39119.73
762.00        39235.68
763.00        39241.65
764.00        39161.82
765.00         39301.1
766.00        39360.09
767.00        39382.29
768.00         39354.8
769.00        39446.76
770.00        39333.24
771.00        39137.53
772.00        39247.77
773.00        39206.72
774.00        39186.93
775.00        39146.21
776.00        39003.45
777.00        38991.93
778.00        38956.18
779.00        38814.98
780.00         38647.7
781.00        38739.39
782.00        38867.25
783.00        38869.34
784.00        38749.94
785.00        38727.59
786.00        38710.52
787.00        38728.02
788.00        38830.76
789.00        38648.62
790.00         38586.3
791.00        38568.75
792.00        38498.26
793.00        38494.57
794.00        38270.56
795.00        38152.63
796.00        38280.63
797.00        38019.84
798.00        38034.44
799.00         37912.4
800.00        37919.54
801.00        37970.32
802.00        38050.57
803.00        38043.43
804.00        37814.66
805.00        37860.59
806.00        37845.63
807.00        37819.56
808.00        37903.54
809.00        37824.99
810.00        37786.51
811.00        37696.88
812.00        37544.79
813.00        37672.55
814.00        37570.28
815.00        37281.07
816.00        37271.38
817.00        37288.56
818.00        37330.26
819.00        37315.68
820.00        37236.24
821.00        37263.54
822.00        37080.75
823.00        36977.07
824.00         37069.7
825.00        37078.36
826.00        36877.05
827.00        36833.88
828.00        36989.71
829.00        36900.28
830.00           36804
831.00        36929.14
832.00         37068.3
833.00        36910.61
834.00        36908.49
835.00        37085.17
836.00        37070.48
837.00        36929.67
838.00         37104.8
839.00        37096.14
840.00        36974.38
841.00        37037.49
842.00        37148.77
843.00        37300.04
844.00        37397.64
845.00           37410
846.00        37300.24
847.00        37334.55
848.00        37443.93
849.00        37512.46
850.00        37631.73
851.00        37533.82
852.00        37617.02
853.00        37693.48
854.00        37715.74
855.00        37965.47
856.00         38098.3
857.00        38065.22
858.00        37921.88
859.00        38295.54
860.00        38253.42
861.00         38145.4
862.00        38346.66
863.00        38305.93
864.00        38237.04
865.00        38264.94
866.00        38292.27
867.00        38208.61
868.00        38360.01
869.00        38402.55
870.00        38325.72
871.00        38373.44
872.00        38223.87
873.00        38237.04
874.00        38235.91
875.00        38272.56
876.00        38331.34
877.00        38172.54
878.00        38139.17
879.00        38193.36
880.00        38287.29
881.00        38461.88
882.00         38522.9
883.00        38542.17
884.00        38576.23
885.00        38614.26
886.00        38687.49
887.00        38751.94
888.00        38816.75
889.00        38956.21
890.00        39033.87
891.00        39035.69
892.00        39029.55
893.00        39090.35
894.00        39207.46
895.00        39136.13
896.00        39282.52
897.00           39372
898.00        39259.03
899.00        39204.48
900.00        39240.67
901.00        39218.48
902.00        39086.88
903.00        38980.21
904.00         39013.4
905.00        38941.35
906.00        38865.66
907.00        38889.93
908.00         38874.7
909.00        38599.67
910.00        38639.77
911.00        38541.29
912.00        38278.85
913.00        38258.43
914.00         38023.8
915.00        37681.28
916.00        37569.14
917.00        37693.62
918.00        37380.26
919.00        37164.68
920.00        36812.73
921.00        36576.46
922.00        36455.68
923.00        35997.24
924.00        35663.64
925.00        35394.14
926.00         34969.9
927.00        34571.83
928.00        34141.48
929.00        33685.92
930.00         33111.6
931.00        32499.29
932.00        31972.07
933.00        30996.29
934.00           29682
935.00         28334.8
936.00        26545.51
937.00        24810.36
938.00        23278.01
939.00        21853.38
940.00        20812.33
941.00        20031.07
942.00        19445.07
943.00        19216.67
944.00        19237.17
945.00        19335.85
946.00        19650.18
947.00        20107.37
948.00         20441.5
949.00        20955.94
950.00        21555.84
951.00        22006.64
952.00         22584.3
953.00        23193.55
954.00        23570.51
955.00         24094.3
956.00         24511.3
957.00        24803.69
958.00        25174.82
959.00        25550.05
960.00        25744.92
961.00        26035.46
962.00        26383.42
963.00           26528
964.00        26376.15
965.00        26242.56
966.00        26368.59
967.00        26488.79
968.00        26400.36
969.00        26295.06
970.00        26551.03
971.00        26554.85
972.00        26616.74
973.00        26611.83
974.00        26569.77
975.00        26788.54
976.00        26610.45
977.00        26605.18
978.00        26458.42
979.00        26099.71
980.00        25853.77
981.00        25897.92
982.00        25482.27
983.00        25170.37
984.00        24947.71
985.00        24797.16
986.00        24678.23
987.00        24507.94
988.00        24154.38
989.00        23733.82
990.00        23334.39
991.00         22847.5
992.00        22168.31
993.00        21583.86
994.00        20839.17
995.00         20249.3
996.00        19654.69
997.00           19007
998.00        18469.98
999.00        17727.81
1000.00        17083.85
1001.00        16398.21
1002.00         15743.2
1003.00        15135.73
1004.00        14485.12
1005.00         13885.1
1006.00        13091.18
1007.00        12541.68
1008.00         12023.2
1009.00        11385.75
1010.00        10759.37
1011.00        10157.37
1012.00        9598.219
1013.00        9050.679
1014.00        8528.189
1015.00        7982.634
1016.00        7419.831
1017.00        6939.899
1018.00        6484.885
1019.00        6053.029
1020.00        5435.809
