SpectraSmart Spectrum 2.6.17.30709
--------- Device Information -----------
Spectrum Name :  Spectrum_0
Saving Time :  2021/11/14 21:03:12
Spectro-Module Model Name : SE1030-VNIR
Spectro-Module Serial Number : OS361AC55010184
Wavelength Start : 350
Wavelength End : 1020
Wavelength Unit : Wavelength(nm)
Spectrum Unit : Intensity(Counts)
-----------Spectrum Setting ------------
Integration Time : 50ms
Average : 1
Boxcar : 0
Background removal :  enabled
linearity correction :  enabled
SC :  disabled
Intensity correction :  disabled
DWT denoise :  enabled
savitzky-golay :  disabled
FFT :  disabled
Running average :  disabled
Kalman :  disabled
High pass :  disabled
---------------BEGIN--------------------
Wavelength(nm)          Intensity(Counts)
350.00        57.65391
351.00        63.76814
352.00         65.2752
353.00        44.64345
354.00        49.73178
355.00        64.94209
356.00        54.32378
357.00        49.44565
358.00        57.05043
359.00        72.34528
360.00        63.70436
361.00        46.52683
362.00        54.95454
363.00        65.71807
364.00        74.27622
365.00         82.0673
366.00        83.63101
367.00        74.39113
368.00         51.2688
369.00        58.16963
370.00        78.68872
371.00        72.88447
372.00        70.17851
373.00         71.8265
374.00        68.00137
375.00        66.95933
376.00        67.96136
377.00        65.97868
378.00        77.59759
379.00        85.74394
380.00        66.64799
381.00         69.4043
382.00        85.14766
383.00        84.05055
384.00        73.98454
385.00        68.87559
386.00        80.22733
387.00        89.69107
388.00        86.86288
389.00        71.93697
390.00        71.24845
391.00        81.04344
392.00        85.19067
393.00        86.42496
394.00        87.99152
395.00        92.81095
396.00        89.78055
397.00        83.27512
398.00        80.14026
399.00         88.7292
400.00        88.91918
401.00        66.30329
402.00        80.44795
403.00        104.6126
404.00        99.99088
405.00        90.69275
406.00        91.68958
407.00         107.293
408.00        89.20368
409.00        75.17446
410.00        98.86749
411.00        92.12478
412.00        84.17382
413.00        100.6586
414.00        100.2521
415.00        89.68156
416.00        82.92164
417.00         93.8214
418.00         104.224
419.00        99.45164
420.00        98.89968
421.00        95.45917
422.00        87.24591
423.00        99.91745
424.00        87.58199
425.00        50.56292
426.00        82.42221
427.00        101.8316
428.00        83.27346
429.00        101.7127
430.00        104.8723
431.00        88.14955
432.00        100.8913
433.00        101.8104
434.00        90.46124
435.00         99.7552
436.00        105.6764
437.00         103.793
438.00        101.7809
439.00        106.2412
440.00        112.7464
441.00        110.3596
442.00        110.0206
443.00        110.1595
444.00         104.976
445.00        109.1798
446.00        114.4164
447.00        109.8967
448.00        111.6408
449.00        119.6631
450.00        127.2647
451.00        116.2058
452.00        107.9938
453.00        119.5131
454.00        114.0096
455.00        104.9377
456.00        106.4287
457.00        107.8387
458.00        115.4719
459.00        130.4135
460.00          152.33
461.00        149.7606
462.00        123.7839
463.00        125.8217
464.00         130.664
465.00        130.2093
466.00        137.8536
467.00        136.3636
468.00        127.5231
469.00        128.6978
470.00        113.8095
471.00        107.8872
472.00        146.4765
473.00        150.8864
474.00         131.721
475.00        131.6396
476.00        128.0027
477.00        135.5081
478.00        160.4608
479.00        154.2746
480.00        148.1107
481.00        166.8905
482.00        151.7895
483.00        149.1269
484.00        175.0948
485.00        154.6925
486.00        156.7001
487.00        191.2517
488.00        184.0974
489.00        172.2503
490.00        171.7015
491.00         180.779
492.00        188.0413
493.00        190.7759
494.00        194.5868
495.00        204.5296
496.00        214.3933
497.00        214.3667
498.00        212.4024
499.00        206.3212
500.00        199.3099
501.00        231.6126
502.00        249.4866
503.00        225.4534
504.00        234.7991
505.00        245.8132
506.00        243.6057
507.00        250.7993
508.00        253.0721
509.00        259.3581
510.00        290.5546
511.00        301.0402
512.00        289.2934
513.00        280.7859
514.00        271.8604
515.00        284.7442
516.00        326.7092
517.00        337.4955
518.00        338.7361
519.00        355.2707
520.00        341.7165
521.00        352.8144
522.00        397.7369
523.00        394.4889
524.00         406.439
525.00        437.7993
526.00        439.2945
527.00        445.8589
528.00        462.8885
529.00        482.3981
530.00        513.0127
531.00         542.666
532.00        558.8875
533.00        569.4173
534.00        574.8655
535.00        579.6614
536.00        596.8115
537.00        619.7397
538.00        645.8223
539.00        685.8274
540.00        704.4827
541.00        712.0909
542.00        747.7138
543.00        753.2708
544.00        762.0361
545.00        816.6805
546.00        836.8961
547.00        850.2236
548.00        886.0318
549.00        908.6661
550.00        924.8798
551.00        945.2991
552.00        988.5585
553.00        1010.814
554.00        1023.505
555.00        1070.025
556.00        1124.225
557.00        1162.258
558.00        1175.958
559.00        1206.019
560.00        1243.087
561.00        1269.005
562.00        1285.666
563.00        1304.652
564.00        1333.806
565.00        1377.092
566.00        1394.166
567.00        1412.031
568.00        1483.678
569.00        1499.633
570.00        1514.415
571.00        1590.395
572.00        1614.085
573.00        1627.875
574.00        1658.302
575.00        1648.496
576.00        1684.567
577.00        1751.685
578.00        1762.477
579.00        1785.137
580.00         1815.03
581.00        1830.946
582.00        1869.357
583.00        1907.719
584.00         1928.01
585.00        1946.493
586.00        1972.424
587.00         2002.75
588.00        2024.011
589.00         2040.24
590.00        2063.536
591.00        2101.601
592.00        2100.328
593.00        2118.567
594.00        2187.933
595.00        2209.703
596.00        2226.797
597.00        2254.253
598.00        2270.173
599.00        2307.112
600.00        2343.941
601.00        2350.878
602.00         2348.59
603.00        2347.957
604.00        2363.528
605.00        2397.104
606.00        2465.923
607.00         2529.02
608.00        2520.422
609.00        2546.383
610.00        2612.112
611.00        2675.792
612.00        2723.633
613.00        2758.958
614.00        2795.734
615.00        2841.095
616.00         2893.15
617.00        2941.819
618.00        2979.379
619.00        3026.156
620.00        3078.607
621.00        3127.997
622.00        3180.408
623.00        3227.844
624.00        3275.435
625.00        3335.986
626.00        3421.208
627.00        3499.676
628.00        3544.841
629.00        3571.035
630.00        3647.977
631.00        3778.506
632.00        3843.752
633.00        3897.929
634.00        3952.747
635.00        3998.204
636.00        4080.109
637.00        4164.188
638.00        4222.595
639.00        4315.918
640.00        4381.948
641.00         4506.05
642.00        4552.284
643.00        4634.734
644.00        4724.132
645.00         4790.07
646.00        4887.606
647.00        4996.231
648.00         5090.99
649.00        5156.839
650.00        5261.659
651.00        5387.692
652.00        5486.974
653.00         5531.91
654.00        5608.322
655.00        5728.852
656.00        5795.534
657.00         5909.18
658.00        6052.945
659.00        6181.132
660.00        6357.862
661.00        6489.397
662.00        6555.026
663.00        6658.754
664.00        6738.103
665.00        6855.215
666.00        7050.379
667.00        7133.898
668.00        7219.026
669.00        7359.907
670.00        7467.329
671.00        7633.789
672.00         7803.27
673.00        7911.138
674.00        8061.186
675.00        8193.301
676.00        8316.177
677.00         8509.16
678.00        8655.844
679.00        8752.187
680.00        8859.685
681.00        9105.757
682.00        9269.741
683.00        9349.306
684.00        9539.201
685.00        9718.911
686.00         9841.81
687.00         9952.71
688.00        10308.95
689.00        10489.32
690.00        10536.37
691.00        10761.61
692.00        10896.22
693.00        11026.13
694.00        11214.43
695.00        11363.71
696.00        11555.73
697.00        11746.06
698.00         11889.6
699.00        12031.07
700.00        12216.62
701.00        12420.49
702.00        12553.51
703.00        12721.24
704.00         12887.1
705.00        13010.62
706.00         13170.3
707.00        13312.02
708.00        13430.09
709.00        13539.14
710.00        13749.24
711.00        13928.28
712.00        14026.29
713.00         14194.1
714.00        14299.43
715.00        14420.16
716.00        14576.08
717.00        14751.39
718.00         14777.3
719.00        14762.33
720.00        14832.38
721.00         15011.3
722.00        15119.57
723.00         15156.4
724.00        15349.68
725.00        15417.75
726.00        15606.74
727.00        15655.08
728.00        15811.53
729.00         15905.9
730.00        15939.04
731.00        16030.18
732.00        16153.89
733.00        16267.47
734.00         16344.5
735.00        16353.13
736.00         16525.6
737.00        16721.63
738.00        16818.04
739.00         16920.6
740.00        16976.09
741.00         17073.8
742.00         17252.7
743.00        17310.65
744.00        17317.95
745.00        17364.55
746.00        17492.35
747.00         17574.2
748.00        17621.52
749.00        17695.54
750.00        17657.28
751.00        17774.75
752.00        17893.34
753.00        18035.94
754.00         17958.1
755.00        18141.57
756.00        18303.19
757.00        18163.57
758.00        18238.84
759.00        18319.41
760.00        18323.49
761.00        18294.95
762.00        18324.85
763.00        18490.23
764.00        18610.16
765.00        18470.63
766.00        18508.36
767.00        18547.39
768.00        18511.94
769.00        18521.17
770.00        18626.71
771.00         18620.2
772.00        18682.78
773.00        18619.38
774.00        18629.46
775.00        18663.74
776.00        18560.31
777.00        18584.71
778.00        18616.43
779.00        18604.36
780.00         18598.9
781.00        18734.69
782.00        18703.78
783.00        18741.74
784.00         18626.9
785.00        18631.99
786.00        18655.02
787.00        18648.46
788.00        18608.39
789.00        18646.42
790.00        18690.93
791.00        18669.17
792.00        18613.06
793.00        18683.03
794.00        18613.76
795.00        18615.87
796.00        18631.72
797.00        18573.34
798.00        18493.89
799.00        18510.39
800.00        18651.12
801.00        18576.28
802.00        18631.22
803.00        18683.64
804.00        18503.99
805.00        18546.46
806.00        18489.05
807.00        18521.03
808.00        18508.14
809.00        18449.27
810.00        18469.13
811.00        18581.65
812.00        18583.96
813.00        18572.74
814.00        18611.53
815.00         18580.7
816.00        18455.71
817.00        18590.54
818.00        18597.48
819.00        18566.89
820.00         18624.3
821.00        18549.89
822.00        18683.98
823.00        18737.58
824.00        18571.47
825.00        18614.29
826.00        18603.55
827.00        18587.58
828.00        18596.03
829.00        18511.08
830.00        18555.02
831.00        18641.06
832.00        18681.63
833.00        18715.47
834.00        18748.38
835.00         18769.2
836.00        18785.73
837.00        18824.94
838.00        18823.36
839.00        18917.22
840.00        18918.79
841.00        18972.57
842.00        18951.77
843.00        19082.84
844.00        19121.56
845.00        19034.94
846.00        19103.89
847.00        19213.62
848.00        19168.09
849.00        19299.26
850.00        19288.32
851.00        19408.94
852.00        19432.73
853.00        19409.05
854.00        19526.74
855.00        19459.48
856.00        19641.37
857.00        19668.76
858.00        19476.79
859.00        19606.46
860.00        19696.68
861.00        19733.88
862.00        19761.54
863.00        19794.85
864.00        20006.17
865.00        20055.25
866.00        19906.16
867.00        19784.33
868.00        20032.46
869.00        20114.89
870.00        20123.69
871.00        20135.79
872.00         20095.4
873.00        20177.28
874.00        20063.61
875.00        19944.07
876.00        20252.93
877.00        20102.12
878.00        20098.64
879.00        20155.19
880.00        20174.38
881.00        20323.44
882.00        20342.39
883.00         20363.7
884.00        20477.74
885.00        20612.59
886.00        20629.67
887.00        20614.72
888.00        20729.73
889.00        20902.91
890.00         20864.2
891.00        20881.21
892.00        20920.61
893.00        20949.56
894.00        20982.38
895.00        21133.45
896.00        21103.73
897.00        21186.25
898.00        21103.15
899.00        21071.54
900.00        21039.73
901.00        21151.16
902.00        21139.11
903.00        20944.76
904.00        21084.64
905.00        21114.67
906.00        21096.07
907.00        21038.18
908.00        21085.96
909.00        21075.19
910.00        21002.88
911.00         20920.1
912.00        20889.43
913.00        20897.93
914.00        20692.58
915.00        20682.81
916.00        20555.19
917.00        20281.24
918.00        20274.92
919.00        20293.99
920.00        20159.47
921.00        19991.98
922.00        19843.41
923.00        19657.39
924.00        19496.36
925.00        19356.83
926.00        19222.15
927.00        18985.06
928.00        18816.98
929.00        18473.82
930.00        18231.17
931.00        17945.15
932.00        17466.42
933.00        16971.08
934.00        16451.53
935.00        15614.44
936.00        14648.39
937.00        13757.14
938.00        12813.52
939.00        12047.09
940.00         11491.3
941.00        11050.55
942.00        10722.65
943.00        10618.14
944.00        10634.02
945.00        10692.52
946.00         10922.3
947.00        11275.39
948.00        11520.57
949.00        11703.77
950.00        12036.34
951.00        12311.52
952.00        12517.08
953.00        12860.56
954.00         13225.8
955.00        13506.57
956.00         13762.8
957.00        13982.39
958.00        14167.03
959.00        14411.02
960.00        14560.67
961.00        14729.94
962.00        14844.75
963.00        14904.18
964.00        14914.73
965.00        14980.36
966.00        14894.61
967.00        14883.75
968.00        14982.33
969.00        14997.42
970.00        14935.67
971.00        14952.46
972.00        15025.46
973.00        15037.95
974.00        15033.02
975.00        15153.49
976.00        15234.72
977.00        15089.22
978.00        14921.83
979.00         14863.9
980.00        14820.66
981.00         14693.5
982.00        14606.12
983.00        14562.46
984.00        14442.45
985.00        14275.99
986.00         14172.9
987.00        14026.75
988.00        13975.18
989.00        13681.54
990.00        13411.94
991.00        13188.48
992.00        12753.49
993.00        12415.75
994.00        12157.24
995.00        11736.71
996.00        11293.45
997.00        10959.34
998.00        10638.31
999.00        10331.07
1000.00        9879.606
1001.00        9472.535
1002.00        9124.375
1003.00        8778.354
1004.00        8429.782
1005.00        8018.067
1006.00        7680.656
1007.00        7338.705
1008.00        7020.413
1009.00        6701.568
1010.00        6324.814
1011.00        5991.614
1012.00         5573.15
1013.00        5273.976
1014.00        4971.581
1015.00         4618.64
1016.00        4280.847
1017.00        3992.955
1018.00        3766.443
1019.00        3508.045
1020.00         3161.26
