SpectraSmart Spectrum 2.6.17.30709
--------- Device Information -----------
Spectrum Name :  Spectrum_0
Saving Time :  2021/11/14 20:51:59
Spectro-Module Model Name : SE1030-VNIR
Spectro-Module Serial Number : OS361AC55010184
Wavelength Start : 350
Wavelength End : 1020
Wavelength Unit : Wavelength(nm)
Spectrum Unit : Intensity(Counts)
-----------Spectrum Setting ------------
Integration Time : 50ms
Average : 1
Boxcar : 0
Background removal :  enabled
linearity correction :  enabled
SC :  disabled
Intensity correction :  disabled
DWT denoise :  enabled
savitzky-golay :  disabled
FFT :  disabled
Running average :  disabled
Kalman :  disabled
High pass :  disabled
---------------BEGIN--------------------
Wavelength(nm)          Intensity(Counts)
350.00        124.5959
351.00        123.9164
352.00         110.947
353.00         135.087
354.00        131.3347
355.00        117.5778
356.00        139.0848
357.00         135.222
358.00        122.8164
359.00         142.558
360.00        148.4046
361.00        139.0813
362.00        131.8171
363.00        145.0846
364.00        163.6792
365.00        160.0015
366.00        147.5233
367.00        140.2104
368.00        146.4327
369.00         157.325
370.00        160.2968
371.00        148.7221
372.00        150.2112
373.00        164.3338
374.00        177.0905
375.00        167.4506
376.00        154.6203
377.00        169.9554
378.00        176.6897
379.00        170.3969
380.00        163.6341
381.00        155.8396
382.00        155.9733
383.00        170.0468
384.00        183.7312
385.00        189.9482
386.00        189.9869
387.00        165.8124
388.00         146.256
389.00        165.7955
390.00        168.6071
391.00        165.3392
392.00        186.2492
393.00        176.2453
394.00        162.7131
395.00        186.8213
396.00        182.1884
397.00        172.4521
398.00        194.4244
399.00        192.7035
400.00        174.8824
401.00        166.0681
402.00         162.428
403.00        168.0766
404.00        181.2773
405.00        180.8788
406.00         182.064
407.00        198.5519
408.00        189.3884
409.00        177.7842
410.00        188.0029
411.00        190.0949
412.00         191.954
413.00        201.1636
414.00        212.5001
415.00        212.4807
416.00        198.6311
417.00        194.2852
418.00        201.1281
419.00        209.7457
420.00         184.962
421.00        178.3484
422.00        207.8163
423.00        194.5525
424.00        181.8412
425.00        193.2531
426.00        202.8953
427.00        205.9619
428.00        203.4351
429.00        207.7263
430.00        212.7337
431.00        212.3824
432.00        199.0682
433.00        200.9898
434.00        215.9359
435.00        210.7174
436.00        222.5749
437.00        242.5462
438.00        234.9288
439.00        223.7603
440.00        222.6895
441.00        235.1826
442.00        247.1087
443.00        251.0217
444.00        248.7443
445.00        248.0454
446.00        253.7361
447.00         265.279
448.00        269.7478
449.00        274.9182
450.00        289.4153
451.00          294.49
452.00        295.9526
453.00        301.9531
454.00         314.879
455.00        320.3391
456.00        314.6802
457.00        337.3055
458.00        352.4983
459.00        343.3142
460.00        347.5412
461.00        361.6719
462.00        377.2442
463.00        373.7299
464.00        388.2737
465.00        414.4139
466.00        399.2467
467.00        399.1363
468.00        423.5829
469.00        445.2241
470.00        458.6752
471.00        461.2552
472.00        455.4869
473.00         480.586
474.00        503.2938
475.00        482.5161
476.00        499.6405
477.00        528.2382
478.00        527.0081
479.00        536.7278
480.00        552.6313
481.00        567.8646
482.00        609.4629
483.00        616.2069
484.00        578.1866
485.00        604.1176
486.00        637.2726
487.00        651.0425
488.00        679.8849
489.00        691.2672
490.00         695.285
491.00        728.2131
492.00        749.1719
493.00        757.3974
494.00        772.8369
495.00        789.9711
496.00        808.8323
497.00        829.2947
498.00        849.3416
499.00        872.1436
500.00        898.8355
501.00         912.923
502.00        935.4346
503.00        977.3058
504.00        997.9072
505.00         1031.73
506.00        1074.855
507.00        1051.417
508.00        1085.997
509.00        1169.688
510.00         1184.74
511.00        1209.505
512.00        1242.469
513.00        1256.091
514.00        1301.119
515.00        1367.222
516.00        1427.136
517.00        1453.535
518.00        1497.559
519.00        1584.119
520.00        1615.937
521.00        1638.152
522.00        1686.804
523.00        1763.434
524.00        1818.151
525.00        1867.221
526.00        1992.957
527.00         2058.19
528.00        2094.366
529.00        2200.137
530.00        2289.977
531.00        2374.725
532.00        2478.555
533.00        2536.653
534.00        2617.521
535.00         2751.77
536.00        2822.704
537.00        2895.489
538.00        3008.175
539.00        3143.333
540.00        3238.991
541.00        3301.631
542.00         3383.28
543.00        3533.392
544.00        3682.455
545.00        3753.342
546.00        3915.422
547.00        4056.548
548.00        4092.991
549.00        4203.933
550.00        4336.603
551.00        4457.066
552.00        4600.458
553.00        4691.878
554.00        4766.118
555.00        4903.926
556.00        5077.976
557.00         5210.09
558.00        5257.803
559.00        5486.979
560.00        5670.502
561.00        5661.924
562.00        5850.467
563.00        6024.521
564.00        6117.034
565.00        6300.025
566.00        6421.672
567.00        6507.797
568.00        6660.316
569.00        6777.301
570.00        6900.286
571.00        7072.603
572.00        7164.178
573.00        7292.071
574.00        7485.089
575.00        7589.819
576.00        7584.313
577.00        7593.115
578.00         7808.82
579.00         7944.79
580.00        8010.808
581.00         8128.77
582.00         8252.95
583.00        8390.198
584.00        8533.145
585.00        8672.349
586.00        8764.256
587.00        8818.519
588.00        8882.514
589.00        9029.495
590.00         9179.08
591.00        9236.908
592.00        9377.763
593.00        9526.354
594.00        9618.356
595.00        9721.838
596.00        9880.376
597.00        10013.77
598.00        9958.809
599.00        9983.301
600.00        10120.27
601.00        10261.39
602.00        10252.55
603.00        10246.82
604.00        10392.23
605.00        10594.17
606.00        10774.94
607.00        10881.76
608.00        10936.82
609.00        11037.88
610.00        11221.78
611.00        11444.49
612.00        11599.86
613.00        11715.24
614.00        11861.34
615.00         12106.3
616.00        12310.22
617.00        12455.84
618.00        12621.22
619.00        12751.85
620.00        12928.15
621.00        13182.46
622.00        13362.86
623.00        13537.86
624.00        13766.96
625.00        14062.92
626.00         14294.3
627.00        14495.13
628.00        14742.21
629.00        15002.55
630.00        15179.57
631.00         15300.9
632.00        15564.86
633.00        15963.19
634.00        16308.08
635.00        16422.63
636.00        16683.02
637.00        17006.94
638.00        17269.45
639.00        17542.74
640.00        17920.16
641.00        18294.16
642.00        18458.26
643.00        18726.93
644.00        19125.81
645.00        19532.98
646.00        19711.96
647.00        20035.76
648.00        20509.89
649.00        20707.17
650.00        21065.66
651.00        21484.59
652.00        21782.39
653.00        22095.34
654.00        22581.13
655.00        22928.29
656.00        23354.81
657.00         23645.2
658.00        23957.55
659.00        24418.39
660.00        24719.53
661.00        25105.39
662.00        25641.34
663.00        26103.87
664.00        26445.66
665.00        26839.97
666.00         27417.7
667.00        27848.09
668.00        28223.76
669.00        28666.96
670.00         29205.8
671.00        29734.57
672.00         30172.3
673.00        30552.63
674.00        31169.13
675.00        31713.96
676.00        32130.02
677.00        32586.99
678.00        33098.39
679.00        33606.52
680.00        34101.82
681.00        34714.63
682.00        35284.88
683.00        35770.09
684.00         36228.7
685.00        36803.45
686.00        37431.73
687.00        38056.43
688.00        38464.48
689.00        39054.82
690.00        39731.47
691.00        40148.51
692.00        40816.83
693.00        41456.18
694.00        41915.19
695.00        42554.34
696.00        43138.22
697.00        43668.64
698.00        44199.29
699.00        44578.65
700.00        45063.32
701.00        45704.32
702.00        46326.38
703.00        46915.75
704.00        47492.81
705.00        47950.73
706.00        48533.13
707.00        48949.06
708.00        49317.56
709.00        49852.62
710.00        50496.41
711.00        50910.44
712.00        51170.46
713.00        51672.11
714.00        52188.28
715.00        52534.48
716.00        52814.73
717.00        53164.18
718.00        53499.13
719.00        53725.55
720.00        54244.34
721.00        54651.62
722.00        54678.43
723.00        55260.64
724.00        55529.84
725.00        55921.51
726.00        56427.45
727.00        56964.04
728.00        56941.48
729.00        57076.75
730.00        57519.75
731.00        57609.14
732.00        57770.37
733.00        57997.11
734.00        58273.82
735.00        58651.17
736.00        58755.46
737.00        59080.55
738.00        59152.09
739.00        59575.01
740.00        59797.91
741.00        60242.93
742.00        60246.58
743.00        60557.81
744.00        60674.87
745.00        60969.91
746.00        61093.04
747.00        61214.62
748.00        61335.66
749.00         61470.1
750.00        61691.36
751.00        61701.09
752.00        61865.21
753.00        62046.84
754.00        62034.85
755.00        62195.56
756.00        62237.92
757.00        62077.06
758.00        62210.34
759.00        62402.21
760.00        62430.34
761.00        62261.71
762.00         62286.2
763.00        62420.98
764.00        62485.35
765.00        62378.64
766.00        62411.66
767.00        62401.04
768.00        62336.12
769.00        62442.22
770.00        62279.29
771.00         62233.2
772.00        62379.14
773.00         62221.1
774.00        62203.38
775.00        62239.19
776.00        62150.27
777.00        61998.21
778.00        61794.43
779.00        61921.25
780.00         61450.4
781.00        61566.02
782.00         61466.2
783.00        61705.79
784.00        61447.27
785.00        61467.95
786.00        61420.39
787.00        61504.83
788.00        61751.49
789.00        61363.83
790.00        61199.53
791.00        60994.66
792.00        60920.05
793.00        60809.54
794.00        60680.79
795.00        60608.64
796.00        60789.72
797.00        60578.59
798.00        60346.33
799.00        60309.68
800.00        60421.18
801.00        60118.84
802.00        60158.01
803.00        60203.08
804.00        59758.95
805.00        59974.72
806.00        59865.59
807.00        60134.33
808.00         59629.3
809.00        59653.77
810.00         59680.9
811.00        59383.96
812.00        59353.02
813.00        59471.53
814.00        59335.69
815.00        59152.65
816.00         59212.5
817.00        59333.34
818.00        59215.65
819.00        58967.95
820.00        58847.46
821.00        58759.13
822.00        58901.51
823.00        58802.81
824.00        58877.43
825.00        59037.53
826.00        58405.49
827.00        58874.86
828.00        58936.65
829.00        58683.52
830.00        58562.56
831.00        58629.44
832.00        58737.82
833.00        58477.32
834.00         58700.5
835.00        58801.77
836.00        58646.24
837.00        58621.55
838.00        58804.61
839.00         59043.2
840.00        59034.75
841.00        58757.86
842.00        59062.45
843.00        59114.64
844.00        59105.96
845.00        59253.64
846.00        59231.77
847.00        59295.71
848.00         59473.2
849.00        59475.61
850.00        59624.79
851.00        59651.36
852.00           59703
853.00        59827.83
854.00        59855.77
855.00        60083.21
856.00        60159.16
857.00        60150.11
858.00        60037.28
859.00        60286.86
860.00        60330.26
861.00        60492.86
862.00        60637.37
863.00        60692.47
864.00        60608.57
865.00        60781.94
866.00        60998.23
867.00        60942.58
868.00        61324.68
869.00        61247.18
870.00           61342
871.00        61554.63
872.00        61334.21
873.00        61496.52
874.00        61641.91
875.00        61536.62
876.00        61660.39
877.00        61504.88
878.00        61756.95
879.00        61989.96
880.00        61903.87
881.00        62075.51
882.00        62056.96
883.00        62121.25
884.00        62229.43
885.00        62009.08
886.00         62403.2
887.00        62331.63
888.00        62270.47
889.00        62564.57
890.00        62459.39
891.00        62746.64
892.00         62684.8
893.00        62660.79
894.00        62959.06
895.00        62557.59
896.00        62758.12
897.00           62752
898.00        62571.84
899.00        62715.34
900.00        62364.93
901.00        62464.41
902.00        62439.88
903.00        62167.48
904.00        62453.78
905.00        62551.25
906.00        62068.11
907.00        61931.67
908.00        62175.52
909.00        61910.98
910.00        61907.49
911.00        61778.05
912.00         61206.6
913.00         61155.3
914.00        61288.81
915.00        60859.59
916.00        60451.42
917.00        60365.06
918.00        59971.38
919.00        59895.37
920.00        59521.14
921.00        59198.59
922.00        59065.84
923.00        58728.72
924.00        58396.39
925.00        58103.03
926.00        57722.13
927.00        57255.58
928.00        56964.74
929.00         56224.4
930.00        55766.19
931.00        55107.08
932.00        54404.86
933.00        53479.09
934.00        52282.89
935.00        50861.38
936.00         49868.9
937.00         48754.2
938.00        47493.39
939.00        46610.75
940.00        45946.27
941.00        45453.04
942.00        45145.55
943.00        44948.68
944.00        44852.38
945.00        44804.34
946.00        45036.55
947.00        45373.31
948.00        45378.87
949.00        45609.11
950.00        45748.93
951.00        45951.92
952.00        46264.43
953.00        46501.04
954.00         46430.2
955.00        46825.77
956.00         46972.3
957.00        46684.99
958.00        46849.16
959.00        46910.88
960.00        46901.64
961.00        46867.36
962.00        46861.79
963.00        46732.69
964.00        46302.21
965.00        45726.75
966.00        45489.12
967.00        45210.33
968.00        44841.32
969.00        44716.93
970.00        44569.51
971.00        44443.69
972.00        44307.33
973.00        44027.31
974.00        43748.97
975.00        43759.11
976.00        43682.22
977.00        43277.68
978.00        42854.58
979.00        42486.41
980.00        42039.86
981.00        41615.09
982.00        41327.91
983.00        40961.81
984.00        40613.22
985.00        40229.11
986.00        39656.47
987.00        39300.24
988.00        39001.84
989.00        38174.51
990.00        37217.69
991.00        36291.05
992.00        35092.98
993.00        34078.44
994.00         33025.2
995.00        31881.64
996.00        30704.59
997.00        29653.37
998.00        28736.46
999.00        27608.02
1000.00        26423.63
1001.00        25411.78
1002.00         24372.6
1003.00        23315.35
1004.00         22286.2
1005.00        21250.39
1006.00        20306.64
1007.00           19362
1008.00        18348.88
1009.00         17417.3
1010.00        16627.26
1011.00        15702.49
1012.00        14755.49
1013.00        13942.33
1014.00        13143.54
1015.00        12276.09
1016.00        11424.99
1017.00        10686.97
1018.00        9920.128
1019.00        9285.355
1020.00        8428.369
