SpectraSmart Spectrum 2.6.17.30709
--------- Device Information -----------
Spectrum Name :  Spectrum_0
Saving Time :  2021/11/14 20:52:56
Spectro-Module Model Name : SE1030-VNIR
Spectro-Module Serial Number : OS361AC55010184
Wavelength Start : 350
Wavelength End : 1020
Wavelength Unit : Wavelength(nm)
Spectrum Unit : Intensity(Counts)
-----------Spectrum Setting ------------
Integration Time : 50ms
Average : 1
Boxcar : 0
Background removal :  enabled
linearity correction :  enabled
SC :  disabled
Intensity correction :  disabled
DWT denoise :  enabled
savitzky-golay :  disabled
FFT :  disabled
Running average :  disabled
Kalman :  disabled
High pass :  disabled
---------------BEGIN--------------------
Wavelength(nm)          Intensity(Counts)
350.00        105.6117
351.00        99.20893
352.00        88.42117
353.00        97.01328
354.00        104.6628
355.00        108.0177
356.00        111.2969
357.00          112.83
358.00        116.1679
359.00        123.9859
360.00        135.7241
361.00        143.0729
362.00        139.0076
363.00         122.966
364.00        111.2726
365.00        120.7339
366.00         127.395
367.00        126.5349
368.00         124.537
369.00         131.149
370.00        139.8799
371.00        137.3061
372.00        135.7402
373.00        136.7228
374.00        136.7433
375.00        139.6742
376.00        142.0835
377.00        141.6374
378.00        133.1012
379.00        131.9323
380.00         155.683
381.00        151.8121
382.00        134.5535
383.00        141.9274
384.00        149.4548
385.00        149.9612
386.00        146.3866
387.00        132.1871
388.00         128.672
389.00        156.6208
390.00        141.6639
391.00        117.8267
392.00        146.5654
393.00        144.3251
394.00        135.4296
395.00        165.9619
396.00        153.8377
397.00        134.6452
398.00         160.803
399.00        160.1447
400.00        146.0515
401.00        150.3259
402.00        149.7099
403.00        152.1629
404.00        164.9041
405.00        158.0169
406.00        154.2685
407.00        173.4487
408.00        165.7623
409.00        150.6466
410.00        154.4103
411.00        145.1374
412.00        150.5888
413.00        182.0413
414.00        163.2814
415.00        148.1345
416.00        175.4706
417.00         161.598
418.00        152.7526
419.00        174.9913
420.00        158.5392
421.00        149.2496
422.00        169.8346
423.00        165.7208
424.00        166.5675
425.00        179.0274
426.00        155.3373
427.00        154.0606
428.00        182.8415
429.00        169.1208
430.00        162.9024
431.00        177.1067
432.00        177.9056
433.00        180.7533
434.00        182.4162
435.00        167.3885
436.00        166.9944
437.00        181.7907
438.00        188.3554
439.00        197.0451
440.00        200.0605
441.00        183.9843
442.00        195.5916
443.00        215.6485
444.00         205.067
445.00        208.1318
446.00        219.1695
447.00        219.5457
448.00        216.5024
449.00        217.3766
450.00        225.5219
451.00        226.9084
452.00        221.6212
453.00        217.3137
454.00        227.9518
455.00        243.3576
456.00        252.8008
457.00        267.7336
458.00        274.5829
459.00        270.5135
460.00        275.6468
461.00        283.8774
462.00        289.5865
463.00        291.0776
464.00        294.1953
465.00        301.1494
466.00        308.1068
467.00        316.0355
468.00        323.5179
469.00        329.1151
470.00        336.9583
471.00        346.8852
472.00        359.5536
473.00        346.2265
474.00        343.0002
475.00        386.7727
476.00        387.8316
477.00        373.0487
478.00        388.2115
479.00        402.5681
480.00        407.8856
481.00        405.9373
482.00        417.5038
483.00        438.1745
484.00        455.1945
485.00        445.2794
486.00        457.5135
487.00        498.7335
488.00        513.6883
489.00         514.663
490.00        515.1597
491.00        531.3347
492.00        537.2663
493.00        543.0231
494.00        571.4701
495.00        591.7698
496.00        597.1777
497.00         596.339
498.00        614.2306
499.00         638.885
500.00        651.5736
501.00        658.4939
502.00        668.8822
503.00        687.4097
504.00        700.4116
505.00        717.1447
506.00        741.1721
507.00         767.738
508.00         789.573
509.00        810.6813
510.00        846.4974
511.00        865.6694
512.00        882.2143
513.00        924.5792
514.00        936.0449
515.00        943.8138
516.00         987.549
517.00        1025.823
518.00        1066.979
519.00        1114.157
520.00        1127.638
521.00        1158.173
522.00          1223.7
523.00        1273.983
524.00        1312.335
525.00        1348.152
526.00         1402.97
527.00        1433.386
528.00        1471.663
529.00        1568.903
530.00        1615.073
531.00        1647.692
532.00        1728.778
533.00        1800.965
534.00        1864.971
535.00        1923.505
536.00          1960.3
537.00        2025.055
538.00        2123.639
539.00        2203.985
540.00        2263.274
541.00        2325.023
542.00         2419.77
543.00        2522.417
544.00        2601.689
545.00        2648.049
546.00        2715.787
547.00        2804.906
548.00        2896.138
549.00        2969.326
550.00        3056.649
551.00        3166.537
552.00         3262.64
553.00        3325.558
554.00        3372.156
555.00        3442.396
556.00        3561.612
557.00        3696.326
558.00        3798.772
559.00        3880.081
560.00        3947.997
561.00        4021.736
562.00         4116.88
563.00        4244.862
564.00        4380.557
565.00        4462.652
566.00        4536.865
567.00        4605.879
568.00        4650.308
569.00         4795.24
570.00        4943.121
571.00        4985.433
572.00        5054.793
573.00        5131.947
574.00        5216.519
575.00        5379.725
576.00        5479.781
577.00        5507.068
578.00        5564.867
579.00         5636.41
580.00        5720.416
581.00        5809.644
582.00        5894.735
583.00        5973.573
584.00        6046.479
585.00        6100.587
586.00         6181.87
587.00        6283.944
588.00         6342.03
589.00        6453.854
590.00         6561.47
591.00         6585.94
592.00        6694.125
593.00        6795.362
594.00        6824.183
595.00        6906.501
596.00        7017.516
597.00        7112.774
598.00         7142.58
599.00        7181.422
600.00        7226.986
601.00        7251.431
602.00        7318.932
603.00        7389.088
604.00        7442.342
605.00        7556.986
606.00        7667.397
607.00        7776.406
608.00        7931.595
609.00        8032.101
610.00        8070.934
611.00        8108.576
612.00        8284.675
613.00        8456.729
614.00        8533.092
615.00          8634.1
616.00         8728.26
617.00         8859.68
618.00        9073.054
619.00        9232.321
620.00        9354.484
621.00        9487.586
622.00        9576.276
623.00        9714.198
624.00        9900.246
625.00        10027.56
626.00        10244.44
627.00        10485.41
628.00        10640.46
629.00        10795.19
630.00        10944.93
631.00        11100.07
632.00        11323.95
633.00        11479.08
634.00        11623.31
635.00        11890.41
636.00        12039.97
637.00        12221.42
638.00        12535.94
639.00        12707.55
640.00        12922.73
641.00        13184.17
642.00        13369.37
643.00        13539.02
644.00        13805.69
645.00        14176.61
646.00        14334.75
647.00        14501.96
648.00        14764.29
649.00        15003.37
650.00        15242.62
651.00        15533.17
652.00        15881.42
653.00        16007.49
654.00        16264.97
655.00        16714.15
656.00        16986.91
657.00        17181.76
658.00        17404.24
659.00        17727.53
660.00        18083.38
661.00        18403.15
662.00        18670.77
663.00        18944.29
664.00        19246.75
665.00        19590.77
666.00        19955.45
667.00        20383.96
668.00        20663.22
669.00        20863.33
670.00        21346.84
671.00        21747.05
672.00        21940.43
673.00        22412.48
674.00        22779.73
675.00        23150.73
676.00        23493.96
677.00        23937.66
678.00        24266.96
679.00        24570.62
680.00        24982.15
681.00        25315.32
682.00        25801.78
683.00           26358
684.00        26669.61
685.00         27048.2
686.00        27440.61
687.00        27794.51
688.00        28333.13
689.00        28802.61
690.00        29168.82
691.00         29555.5
692.00        30103.75
693.00        30560.52
694.00        30845.84
695.00        31357.68
696.00        31768.68
697.00        32122.72
698.00        32570.71
699.00        32931.51
700.00        33360.88
701.00        33847.22
702.00        34204.05
703.00        34574.52
704.00        35005.88
705.00        35466.96
706.00        35847.54
707.00        36191.79
708.00         36545.6
709.00         36905.2
710.00        37358.41
711.00        37601.24
712.00        37687.36
713.00        38025.96
714.00        38456.61
715.00        38804.94
716.00        39014.54
717.00        39154.64
718.00         39342.9
719.00        39607.14
720.00        39605.43
721.00        39922.93
722.00        40189.51
723.00        40341.07
724.00         40700.7
725.00        40880.47
726.00        41090.48
727.00        41481.78
728.00           41644
729.00        41894.95
730.00        42176.52
731.00        42252.62
732.00        42595.54
733.00         42866.2
734.00        42992.22
735.00        43326.32
736.00        43435.39
737.00        43563.21
738.00        43802.15
739.00        44096.74
740.00        44321.35
741.00        44670.89
742.00        44991.64
743.00        45193.61
744.00        45260.47
745.00         45301.8
746.00        45461.56
747.00        45589.63
748.00        45801.63
749.00        46044.62
750.00        46041.75
751.00        46048.55
752.00        46238.81
753.00        46581.12
754.00        46444.85
755.00        46878.25
756.00        46762.07
757.00        46709.05
758.00        46738.86
759.00        46986.86
760.00        47169.53
761.00        46981.93
762.00        46972.41
763.00        46965.66
764.00        46978.18
765.00        47143.03
766.00        47228.92
767.00        47180.57
768.00        47083.88
769.00        47009.42
770.00        47158.11
771.00        47241.73
772.00         47158.5
773.00        47172.14
774.00        47195.78
775.00        47326.31
776.00        47079.35
777.00        46846.49
778.00        46793.63
779.00        46882.81
780.00        46742.19
781.00         46768.3
782.00        46638.16
783.00        46542.71
784.00        46643.08
785.00        46515.43
786.00         46482.9
787.00        46494.55
788.00        46519.57
789.00        46577.28
790.00        46413.84
791.00        46337.63
792.00        46525.17
793.00        46182.32
794.00        46253.04
795.00        46343.43
796.00        46296.44
797.00        45940.45
798.00        45888.06
799.00        46094.36
800.00        46124.15
801.00        46064.15
802.00        45903.62
803.00        45803.72
804.00        45768.01
805.00        45761.02
806.00        45816.82
807.00        45789.74
808.00        45539.14
809.00        45692.92
810.00        45597.57
811.00        45422.28
812.00        45332.66
813.00        45536.53
814.00        45599.99
815.00        45477.54
816.00        45420.75
817.00        45278.53
818.00         45380.5
819.00        45380.86
820.00        45107.12
821.00         45149.2
822.00         45040.5
823.00         45025.8
824.00        45180.99
825.00        45041.65
826.00        44948.86
827.00        44968.43
828.00         45027.3
829.00        44964.88
830.00        45062.67
831.00        45157.23
832.00        45097.07
833.00        44919.68
834.00        45106.78
835.00        45156.88
836.00        45119.97
837.00        45286.02
838.00        45195.35
839.00        45409.49
840.00        45337.13
841.00        45320.64
842.00        45270.55
843.00        45426.95
844.00        45496.16
845.00        45375.86
846.00        45601.75
847.00        45633.07
848.00        45649.35
849.00        45788.58
850.00        46144.74
851.00        46097.54
852.00        46120.44
853.00        46265.31
854.00        46260.71
855.00        46258.92
856.00        46389.68
857.00        46512.39
858.00        46370.32
859.00        46423.45
860.00        46848.46
861.00        46887.97
862.00         46671.5
863.00        46735.93
864.00         46893.7
865.00         46941.8
866.00        47051.25
867.00        47110.31
868.00        47040.44
869.00        47042.29
870.00        47178.65
871.00        47096.63
872.00        47041.98
873.00        46872.64
874.00        46839.21
875.00        46861.68
876.00        46682.36
877.00        46747.71
878.00         46772.7
879.00        47055.73
880.00        46981.53
881.00        47051.07
882.00        47400.23
883.00        47553.93
884.00        47430.88
885.00        47411.46
886.00        47651.75
887.00        47906.23
888.00        47998.54
889.00        48063.84
890.00        48449.38
891.00         48431.3
892.00        48448.94
893.00        48621.25
894.00        48664.99
895.00        48436.98
896.00        48449.63
897.00        48485.04
898.00        48377.54
899.00        48405.25
900.00        48524.69
901.00         48402.6
902.00        48421.61
903.00        48095.33
904.00        48242.22
905.00        48109.65
906.00         48098.1
907.00         48111.7
908.00        48026.66
909.00        47949.71
910.00        47763.75
911.00         47590.7
912.00        47292.03
913.00        47419.66
914.00        47230.19
915.00        46944.36
916.00        46661.24
917.00        46458.12
918.00        46145.69
919.00        46163.46
920.00        45695.22
921.00        45283.49
922.00        45149.82
923.00        44644.98
924.00        44203.05
925.00        43904.61
926.00        43482.31
927.00         42941.2
928.00        42586.75
929.00         41951.8
930.00        41235.42
931.00         40484.9
932.00        39616.44
933.00        38432.52
934.00        36966.01
935.00        35069.11
936.00        32985.35
937.00         30871.6
938.00        28784.72
939.00        27188.51
940.00        25898.25
941.00        24850.38
942.00        24162.93
943.00         23926.5
944.00        23980.04
945.00        24082.15
946.00        24439.54
947.00        24982.29
948.00        25370.31
949.00        26048.41
950.00        26801.09
951.00        27458.34
952.00        28022.85
953.00        28711.02
954.00        29363.05
955.00        30172.29
956.00        30628.77
957.00        31005.14
958.00        31653.31
959.00        31795.85
960.00        32264.97
961.00        32631.59
962.00        32915.41
963.00        33163.72
964.00        33209.98
965.00        32987.34
966.00        33080.13
967.00        33212.49
968.00        33159.42
969.00        33130.59
970.00        33444.96
971.00        33198.89
972.00           33294
973.00        33223.51
974.00        33222.41
975.00        33414.26
976.00        33389.46
977.00        33051.45
978.00        32945.69
979.00        32823.14
980.00        32486.15
981.00        32316.85
982.00        32169.94
983.00        31780.34
984.00        31527.13
985.00        31431.27
986.00        31077.99
987.00        30688.96
988.00         30492.2
989.00        29984.11
990.00        29260.74
991.00        28502.55
992.00        27699.36
993.00        26829.53
994.00         26222.3
995.00        25239.24
996.00        24425.71
997.00        23842.71
998.00        22846.32
999.00        22068.34
1000.00        21276.83
1001.00        20386.76
1002.00        19532.09
1003.00        18818.02
1004.00        18064.33
1005.00        17245.37
1006.00        16410.85
1007.00        15511.07
1008.00        14740.81
1009.00        14061.86
1010.00        13308.48
1011.00        12605.62
1012.00        11868.82
1013.00        11249.73
1014.00        10564.05
1015.00        9843.103
1016.00        9206.623
1017.00        8604.672
1018.00        7976.861
1019.00        7494.802
1020.00        6838.702
