SpectraSmart Spectrum 2.6.17.30709
--------- Device Information -----------
Spectrum Name :  Spectrum_0
Saving Time :  2021/11/14 20:54:29
Spectro-Module Model Name : SE1030-VNIR
Spectro-Module Serial Number : OS361AC55010184
Wavelength Start : 350
Wavelength End : 1020
Wavelength Unit : Wavelength(nm)
Spectrum Unit : Intensity(Counts)
-----------Spectrum Setting ------------
Integration Time : 50ms
Average : 1
Boxcar : 0
Background removal :  enabled
linearity correction :  enabled
SC :  disabled
Intensity correction :  disabled
DWT denoise :  enabled
savitzky-golay :  disabled
FFT :  disabled
Running average :  disabled
Kalman :  disabled
High pass :  disabled
---------------BEGIN--------------------
Wavelength(nm)          Intensity(Counts)
350.00        85.96967
351.00        88.56876
352.00        88.02378
353.00         89.1983
354.00        101.1786
355.00        111.7958
356.00        103.1977
357.00        106.6237
358.00        115.6879
359.00        107.9141
360.00        117.0591
361.00        127.4962
362.00        109.0964
363.00        108.3779
364.00        119.3284
365.00        115.2215
366.00        101.2169
367.00        90.40089
368.00        94.78481
369.00        117.6146
370.00        134.0489
371.00        114.7516
372.00        119.0128
373.00        133.3427
374.00        115.9541
375.00        123.6398
376.00        147.6543
377.00        155.2966
378.00        146.7001
379.00        132.8538
380.00        131.1478
381.00        115.1496
382.00        103.0167
383.00        122.3243
384.00        129.2055
385.00        122.2785
386.00        118.3634
387.00        127.6042
388.00        138.0587
389.00        131.7045
390.00        123.5373
391.00        122.4083
392.00        129.9663
393.00        145.9821
394.00        154.2601
395.00        141.1776
396.00        148.3084
397.00        154.1849
398.00        128.8523
399.00        146.5972
400.00        166.3651
401.00        136.7928
402.00        126.3606
403.00        137.2255
404.00        150.0857
405.00        158.0623
406.00        156.7197
407.00        151.1129
408.00        153.5121
409.00        159.8463
410.00        160.8458
411.00         168.075
412.00        160.5923
413.00           132.9
414.00        147.5182
415.00        160.4602
416.00        139.2918
417.00        147.5835
418.00        158.8691
419.00        154.5262
420.00        166.6594
421.00        171.0158
422.00        158.1609
423.00        155.3903
424.00        158.4301
425.00        161.3195
426.00        159.8936
427.00        159.0004
428.00        162.5622
429.00        175.8208
430.00        171.1902
431.00        154.4617
432.00        172.5156
433.00        181.2853
434.00        174.6268
435.00        180.4801
436.00        187.7126
437.00        191.0735
438.00        188.3149
439.00        186.1331
440.00        188.2017
441.00        194.2379
442.00        202.0179
443.00        208.8649
444.00        213.3633
445.00        211.5804
446.00        208.6494
447.00        211.2502
448.00         216.312
449.00        223.3179
450.00        230.3303
451.00        236.8272
452.00        236.4454
453.00        230.2212
454.00        243.2296
455.00        259.0756
456.00        261.8976
457.00        262.4593
458.00        268.3549
459.00        282.0288
460.00        296.3729
461.00        298.1198
462.00        289.5118
463.00        297.9858
464.00        304.2968
465.00        307.3231
466.00        329.9888
467.00        331.4598
468.00        322.4908
469.00        345.2163
470.00        352.8399
471.00        343.9718
472.00         340.362
473.00        351.9781
474.00           373.1
475.00        389.2024
476.00        398.9977
477.00        404.1039
478.00        408.6732
479.00        419.9269
480.00        425.1458
481.00        418.0295
482.00        430.9124
483.00        439.6702
484.00        439.5053
485.00        480.6179
486.00        509.7678
487.00        510.7569
488.00        520.2728
489.00        541.7419
490.00        560.1517
491.00        542.5296
492.00        556.5758
493.00        586.0855
494.00        577.2151
495.00        593.7132
496.00        618.6064
497.00        618.9191
498.00         645.625
499.00        671.1863
500.00        671.5438
501.00        691.7343
502.00        724.3667
503.00        752.0396
504.00        759.2184
505.00        765.3557
506.00        784.9999
507.00        817.9393
508.00        836.6292
509.00         845.095
510.00        875.9741
511.00        899.9242
512.00        923.3218
513.00        962.4755
514.00        1002.165
515.00        1030.109
516.00        1047.105
517.00        1100.301
518.00        1158.452
519.00        1191.294
520.00        1230.458
521.00        1269.222
522.00        1304.224
523.00         1321.95
524.00        1386.366
525.00        1470.318
526.00        1462.121
527.00         1523.55
528.00         1611.37
529.00        1605.212
530.00        1695.699
531.00        1794.303
532.00        1792.818
533.00        1862.964
534.00         1954.88
535.00        2014.972
536.00        2079.753
537.00        2160.471
538.00        2255.795
539.00        2338.001
540.00        2417.362
541.00        2491.082
542.00        2551.434
543.00        2624.744
544.00        2712.501
545.00        2804.178
546.00         2910.01
547.00        3001.457
548.00        3065.755
549.00        3128.287
550.00        3224.093
551.00        3337.834
552.00        3376.293
553.00        3468.306
554.00        3608.953
555.00        3710.062
556.00          3758.8
557.00        3837.328
558.00        4009.322
559.00        4089.761
560.00        4142.833
561.00        4251.269
562.00        4359.602
563.00         4483.41
564.00        4609.841
565.00        4705.584
566.00        4792.811
567.00        4880.042
568.00        4971.767
569.00        5040.115
570.00         5141.17
571.00        5299.392
572.00        5338.549
573.00        5388.737
574.00        5528.928
575.00        5637.947
576.00         5721.67
577.00        5776.888
578.00        5811.497
579.00        5875.155
580.00        5979.633
581.00        6107.382
582.00        6239.248
583.00        6350.713
584.00        6431.268
585.00        6483.937
586.00        6550.378
587.00        6625.587
588.00        6664.937
589.00        6720.734
590.00        6810.792
591.00        6924.739
592.00        6986.147
593.00        7058.318
594.00        7181.003
595.00        7225.703
596.00        7318.424
597.00        7464.726
598.00        7537.704
599.00         7614.92
600.00        7656.698
601.00        7623.988
602.00        7648.415
603.00        7709.762
604.00        7773.723
605.00        7858.888
606.00        7968.188
607.00        8094.846
608.00        8215.946
609.00        8314.019
610.00        8383.628
611.00        8451.875
612.00        8587.901
613.00        8771.621
614.00        8941.723
615.00        9020.684
616.00        9136.631
617.00        9305.502
618.00        9460.238
619.00        9595.258
620.00        9719.951
621.00        9859.338
622.00        9992.484
623.00        10189.69
624.00         10402.6
625.00        10479.93
626.00        10628.83
627.00        10842.76
628.00        11028.89
629.00        11241.72
630.00        11392.55
631.00        11487.96
632.00        11708.11
633.00        11919.01
634.00        12119.05
635.00        12371.34
636.00        12507.78
637.00        12679.78
638.00        12982.49
639.00        13227.71
640.00        13376.19
641.00        13533.82
642.00        13875.29
643.00        14072.57
644.00        14254.47
645.00        14590.59
646.00        14904.15
647.00        15150.93
648.00        15367.94
649.00        15633.39
650.00        15809.12
651.00        16027.13
652.00        16440.73
653.00        16717.98
654.00        16962.95
655.00        17233.01
656.00        17459.61
657.00         17761.4
658.00        18087.99
659.00        18359.82
660.00        18647.84
661.00        18936.56
662.00         19235.8
663.00        19600.51
664.00        19946.79
665.00        20333.02
666.00        20790.81
667.00        20954.63
668.00         21224.5
669.00        21682.86
670.00        21902.93
671.00        22228.74
672.00        22661.64
673.00        23073.59
674.00        23452.28
675.00        23768.55
676.00        24107.23
677.00        24619.08
678.00         24976.6
679.00        25302.27
680.00        25765.07
681.00        26112.46
682.00        26465.61
683.00        26886.03
684.00        27346.84
685.00        27759.24
686.00        28149.02
687.00        28586.43
688.00        29075.06
689.00        29441.06
690.00        29807.49
691.00        30381.67
692.00        30793.16
693.00        31108.16
694.00        31494.05
695.00        32205.18
696.00        32574.76
697.00        32772.67
698.00        33231.51
699.00        33689.59
700.00        34131.66
701.00        34570.37
702.00        35011.22
703.00        35339.92
704.00        35667.88
705.00        36067.02
706.00        36513.72
707.00        36878.48
708.00        37194.73
709.00        37574.71
710.00         37912.2
711.00        38307.33
712.00        38709.49
713.00        38786.28
714.00        39172.41
715.00        39603.91
716.00        39727.95
717.00        39950.16
718.00        40056.66
719.00        40173.16
720.00        40426.79
721.00        40544.09
722.00        40642.05
723.00        40833.71
724.00        41138.59
725.00        41399.16
726.00           41673
727.00        42032.77
728.00        42369.27
729.00        42529.38
730.00        42624.08
731.00        42864.91
732.00         43150.3
733.00        43410.65
734.00        43669.52
735.00        43896.41
736.00        44073.14
737.00        44174.95
738.00        44354.13
739.00        44722.02
740.00        45013.06
741.00        45226.42
742.00        45421.99
743.00        45636.96
744.00        45634.67
745.00        45720.23
746.00        46076.43
747.00        46140.23
748.00        46238.48
749.00        46455.95
750.00        46488.77
751.00        46539.18
752.00        46751.14
753.00         47184.5
754.00        47081.45
755.00        47208.73
756.00        47165.35
757.00        46977.02
758.00        47187.93
759.00        47448.07
760.00        47437.93
761.00        47161.54
762.00        47271.31
763.00        47397.44
764.00        47378.69
765.00        47340.06
766.00        47404.56
767.00        47434.35
768.00        47357.82
769.00        47275.09
770.00        47228.92
771.00         47324.6
772.00        47415.77
773.00        47335.68
774.00        47118.31
775.00        47105.05
776.00        47281.15
777.00        47169.92
778.00        46827.83
779.00        46985.48
780.00        46845.48
781.00        46736.43
782.00        46820.44
783.00        46710.12
784.00        46515.13
785.00        46518.46
786.00        46589.98
787.00        46639.85
788.00        46623.32
789.00        46525.51
790.00        46485.03
791.00        46352.18
792.00        46455.65
793.00        46057.56
794.00        45942.76
795.00        46052.03
796.00        46091.96
797.00        45984.65
798.00        46004.27
799.00        46042.69
800.00        46027.78
801.00         45808.8
802.00        45718.35
803.00        45672.84
804.00        45524.62
805.00         45588.3
806.00        45511.15
807.00           45385
808.00        45393.48
809.00        45475.39
810.00         45156.5
811.00        44922.98
812.00        44999.28
813.00        44970.04
814.00        44940.19
815.00         44890.4
816.00        44851.54
817.00        44866.62
818.00        44865.46
819.00        44764.43
820.00        44740.38
821.00        44642.17
822.00        44799.58
823.00        44767.86
824.00        44508.73
825.00        44488.03
826.00        44416.79
827.00        44517.21
828.00        44641.89
829.00        44263.72
830.00        44325.42
831.00        44458.24
832.00        44474.57
833.00        44481.96
834.00        44645.11
835.00        44617.22
836.00        44558.66
837.00        44518.38
838.00        44718.17
839.00        44816.86
840.00        44777.31
841.00        44761.55
842.00        44849.84
843.00        44921.47
844.00        44977.09
845.00        45028.16
846.00        45018.95
847.00        45100.71
848.00        45227.96
849.00        45244.11
850.00        45141.73
851.00         45076.4
852.00        45263.98
853.00        45412.21
854.00        45311.86
855.00           45729
856.00         45502.2
857.00           45587
858.00        45451.93
859.00        45622.84
860.00        45661.25
861.00        45729.66
862.00        45861.93
863.00        45901.93
864.00           45967
865.00        46032.11
866.00        46038.27
867.00        45966.61
868.00         46133.7
869.00        46071.63
870.00        46179.32
871.00        46283.02
872.00        46132.44
873.00        46002.73
874.00         45802.5
875.00        45666.02
876.00        45788.02
877.00        45687.78
878.00        45795.56
879.00        45837.19
880.00        45712.34
881.00        45926.79
882.00        46084.49
883.00        46383.44
884.00         46532.5
885.00        46465.34
886.00        46768.54
887.00        46767.62
888.00        46750.63
889.00        46983.08
890.00        46884.24
891.00        47104.55
892.00        47238.87
893.00        47277.58
894.00        47401.54
895.00        47265.78
896.00        47264.27
897.00        47227.73
898.00        47086.11
899.00        47164.54
900.00        47269.44
901.00        47417.95
902.00        47159.96
903.00        47002.29
904.00        47055.27
905.00        47062.24
906.00        46613.32
907.00        46533.01
908.00        46763.42
909.00        46681.09
910.00        46350.38
911.00        46240.96
912.00        46002.36
913.00        46123.09
914.00        45793.02
915.00        45473.45
916.00        45162.93
917.00        45133.65
918.00        44936.41
919.00        44682.39
920.00        44336.46
921.00        44019.32
922.00         43773.4
923.00        43487.31
924.00        43095.48
925.00        42706.29
926.00        42169.22
927.00        41674.59
928.00        41298.34
929.00         40514.3
930.00        39875.44
931.00        39129.08
932.00        38341.65
933.00        37088.42
934.00        35780.23
935.00        34035.42
936.00        32071.11
937.00        30071.11
938.00        27888.71
939.00        26347.77
940.00        25076.28
941.00        24083.59
942.00        23427.82
943.00        23171.12
944.00        23136.94
945.00        23297.91
946.00        23643.23
947.00        24122.76
948.00        24649.54
949.00        25150.56
950.00        25794.77
951.00        26511.38
952.00        27189.65
953.00        27803.27
954.00        28333.18
955.00        28977.22
956.00        29373.32
957.00        29793.81
958.00        30511.26
959.00        30585.86
960.00        30857.47
961.00        31111.44
962.00        31509.75
963.00        31895.35
964.00         31952.9
965.00        31818.56
966.00        31689.94
967.00        31551.54
968.00        31586.88
969.00        31694.64
970.00        31826.17
971.00        31782.69
972.00        31881.42
973.00         31860.8
974.00        31680.45
975.00        31777.66
976.00        31861.07
977.00        31749.63
978.00        31429.48
979.00        31187.33
980.00        31059.96
981.00        30845.18
982.00        30557.43
983.00        30456.22
984.00         30285.7
985.00        30000.61
986.00        29777.23
987.00        29400.15
988.00        29106.68
989.00         28620.2
990.00        28000.32
991.00        27381.54
992.00        26738.01
993.00        25947.01
994.00        25266.95
995.00        24468.83
996.00        23674.46
997.00         23033.8
998.00         22402.1
999.00        21500.36
1000.00        20645.66
1001.00        19887.43
1002.00        19061.82
1003.00        18222.48
1004.00         17515.9
1005.00         16631.2
1006.00        15924.28
1007.00        15056.43
1008.00        14222.58
1009.00        13549.63
1010.00        12887.48
1011.00        12156.84
1012.00        11468.05
1013.00        10770.35
1014.00        10076.74
1015.00        9379.369
1016.00        8713.211
1017.00        8139.315
1018.00        7497.552
1019.00        7013.508
1020.00        6386.438
