SpectraSmart Spectrum 2.6.17.30709
--------- Device Information -----------
Spectrum Name :  Spectrum_0
Saving Time :  2021/11/14 20:55:20
Spectro-Module Model Name : SE1030-VNIR
Spectro-Module Serial Number : OS361AC55010184
Wavelength Start : 350
Wavelength End : 1020
Wavelength Unit : Wavelength(nm)
Spectrum Unit : Intensity(Counts)
-----------Spectrum Setting ------------
Integration Time : 50ms
Average : 1
Boxcar : 0
Background removal :  enabled
linearity correction :  enabled
SC :  disabled
Intensity correction :  disabled
DWT denoise :  enabled
savitzky-golay :  disabled
FFT :  disabled
Running average :  disabled
Kalman :  disabled
High pass :  disabled
---------------BEGIN--------------------
Wavelength(nm)          Intensity(Counts)
350.00        93.12872
351.00        95.56901
352.00        97.59787
353.00        86.01022
354.00        97.13034
355.00        110.2033
356.00        87.47916
357.00        92.05663
358.00        108.3218
359.00        93.21863
360.00        100.0318
361.00        121.3287
362.00        127.9701
363.00        115.1327
364.00        101.0873
365.00        108.8951
366.00        122.6233
367.00        125.3429
368.00        105.1455
369.00        111.8028
370.00        128.7609
371.00        112.9895
372.00        113.5948
373.00        126.0608
374.00        124.9304
375.00        123.6858
376.00        122.6299
377.00        118.4748
378.00        118.1381
379.00        118.0826
380.00        111.5496
381.00        113.6521
382.00        117.0226
383.00        108.9502
384.00        107.8855
385.00        115.5703
386.00        126.1981
387.00        129.5851
388.00        130.7805
389.00        139.8077
390.00        134.9072
391.00        126.3628
392.00        130.2424
393.00        134.3246
394.00        130.7449
395.00        117.8149
396.00        133.1802
397.00         151.209
398.00         137.671
399.00        124.9453
400.00        127.5857
401.00        145.6031
402.00        152.1945
403.00        147.4534
404.00        143.5547
405.00        140.6333
406.00        139.7064
407.00        138.9922
408.00        124.0421
409.00        119.8106
410.00        142.8611
411.00          150.97
412.00        149.2443
413.00        148.2166
414.00        131.6203
415.00         122.998
416.00        135.2172
417.00         137.047
418.00        137.9574
419.00        145.5686
420.00        148.3251
421.00        146.7534
422.00        141.3943
423.00        124.9795
424.00        126.5602
425.00        148.8317
426.00        145.9025
427.00        142.5553
428.00        151.8457
429.00        165.6549
430.00        171.5045
431.00        168.4249
432.00        177.2135
433.00        167.5154
434.00        148.9953
435.00        161.4638
436.00         172.844
437.00        167.2713
438.00        140.1137
439.00        157.6392
440.00        192.1552
441.00         171.762
442.00        172.0797
443.00        188.9723
444.00        187.9183
445.00        186.6686
446.00        185.7432
447.00        183.7516
448.00        201.8221
449.00        215.0551
450.00        201.9542
451.00        205.8555
452.00        220.7458
453.00        229.2859
454.00        228.5248
455.00        224.1037
456.00        225.1309
457.00        240.7576
458.00        248.1013
459.00        241.7173
460.00        257.4445
461.00        278.4581
462.00        286.9525
463.00        272.5485
464.00        264.6244
465.00        276.6971
466.00        299.4608
467.00        303.3641
468.00        289.4555
469.00        284.1223
470.00         295.012
471.00        315.3382
472.00        330.3776
473.00         329.671
474.00         325.239
475.00        332.5086
476.00        352.7041
477.00        362.7655
478.00        350.3384
479.00        366.0622
480.00        387.6607
481.00        390.3519
482.00        386.8397
483.00        396.3134
484.00        421.0899
485.00        421.9176
486.00        424.3196
487.00        438.4464
488.00        445.4566
489.00        454.9322
490.00        464.7714
491.00        463.3257
492.00        492.3405
493.00          527.89
494.00        524.9984
495.00        509.9375
496.00        515.1379
497.00        555.3527
498.00        587.4911
499.00        596.1027
500.00        589.9545
501.00        602.9786
502.00        624.2217
503.00        638.0807
504.00        655.8362
505.00        667.2482
506.00        679.6865
507.00          732.23
508.00        746.2363
509.00         734.035
510.00        780.5984
511.00        806.3792
512.00        814.7198
513.00        842.7882
514.00         868.512
515.00        891.8826
516.00        918.0369
517.00        968.1287
518.00        1010.049
519.00        1022.493
520.00         1052.43
521.00        1087.223
522.00        1122.363
523.00        1182.598
524.00        1217.262
525.00        1234.907
526.00        1288.261
527.00         1352.49
528.00        1395.834
529.00         1397.75
530.00        1468.932
531.00        1551.413
532.00        1570.671
533.00        1651.909
534.00        1733.102
535.00        1764.249
536.00        1811.156
537.00        1873.041
538.00        1946.864
539.00        2034.606
540.00         2080.69
541.00        2116.018
542.00        2216.127
543.00         2294.35
544.00        2355.998
545.00        2437.052
546.00        2492.423
547.00        2566.887
548.00        2679.674
549.00        2711.558
550.00        2783.182
551.00        2917.417
552.00        2949.081
553.00        3025.483
554.00        3144.993
555.00        3208.565
556.00        3285.771
557.00        3365.566
558.00         3427.03
559.00        3553.572
560.00        3665.897
561.00        3708.501
562.00        3796.023
563.00        3872.988
564.00         3937.95
565.00         4057.15
566.00        4165.419
567.00        4232.675
568.00        4266.414
569.00        4366.971
570.00        4493.583
571.00        4574.003
572.00        4641.088
573.00        4717.335
574.00        4809.188
575.00        4898.188
576.00        4933.845
577.00        4950.961
578.00        5043.315
579.00        5090.764
580.00        5136.645
581.00         5249.39
582.00        5389.263
583.00        5453.679
584.00        5432.941
585.00        5547.632
586.00        5663.439
587.00         5727.55
588.00        5798.944
589.00        5856.483
590.00        5914.667
591.00         5989.94
592.00        6116.033
593.00        6221.311
594.00        6255.733
595.00        6279.021
596.00         6347.88
597.00        6462.884
598.00        6572.281
599.00        6581.663
600.00        6569.045
601.00        6641.343
602.00         6624.31
603.00        6640.903
604.00        6763.246
605.00        6800.272
606.00        6903.178
607.00        7057.775
608.00        7119.996
609.00        7220.195
610.00        7333.367
611.00        7406.262
612.00        7506.631
613.00        7607.822
614.00         7704.19
615.00         7854.79
616.00        7956.996
617.00        8041.492
618.00        8195.489
619.00        8318.548
620.00        8415.393
621.00        8521.229
622.00        8680.364
623.00        8785.988
624.00        8841.285
625.00        9060.798
626.00         9256.03
627.00        9413.949
628.00        9515.882
629.00        9742.835
630.00        9948.993
631.00        10050.38
632.00         10208.5
633.00        10320.86
634.00        10458.52
635.00        10722.82
636.00        10897.52
637.00        11025.15
638.00        11202.96
639.00        11441.01
640.00        11682.12
641.00        11870.27
642.00        12006.34
643.00        12162.98
644.00        12402.82
645.00        12704.85
646.00        12831.15
647.00        13066.76
648.00        13402.11
649.00        13504.54
650.00        13712.03
651.00         14014.4
652.00        14285.69
653.00        14513.97
654.00        14741.08
655.00        14974.48
656.00        15148.01
657.00        15398.12
658.00        15686.65
659.00        15940.41
660.00        16231.44
661.00        16515.36
662.00        16734.63
663.00        16808.86
664.00        17234.66
665.00        17722.59
666.00        17870.43
667.00        18156.43
668.00        18462.42
669.00        18719.65
670.00        18976.79
671.00        19338.02
672.00        19682.33
673.00        19899.51
674.00        20289.05
675.00        20635.77
676.00        20904.31
677.00         21330.4
678.00        21547.74
679.00        21801.26
680.00        22308.43
681.00        22511.29
682.00        22829.75
683.00         23319.3
684.00        23668.22
685.00        24027.19
686.00        24385.98
687.00        24739.54
688.00        25088.91
689.00        25568.25
690.00        26037.07
691.00        26271.89
692.00        26607.99
693.00        26972.31
694.00        27336.74
695.00        27852.73
696.00        28234.15
697.00        28518.07
698.00        28941.52
699.00        29386.08
700.00        29636.71
701.00        29806.96
702.00         30390.5
703.00        30646.03
704.00        30858.43
705.00        31326.47
706.00        31738.01
707.00        31984.37
708.00        32210.77
709.00        32599.23
710.00        33043.11
711.00        33357.43
712.00        33484.88
713.00        33666.34
714.00        33882.07
715.00        34129.43
716.00         34492.2
717.00        34812.84
718.00        34980.77
719.00         35069.2
720.00        35020.53
721.00        35218.39
722.00        35250.76
723.00         35495.7
724.00        35787.11
725.00        36059.66
726.00        36268.43
727.00           36524
728.00        36686.99
729.00        36954.64
730.00        37332.05
731.00        37414.39
732.00        37493.34
733.00        37658.18
734.00        37968.05
735.00        38192.04
736.00        38315.01
737.00        38389.62
738.00        38517.27
739.00        38966.85
740.00        39094.63
741.00        39144.46
742.00        39313.57
743.00         39616.8
744.00        39701.95
745.00        39646.43
746.00        39811.29
747.00         40001.7
748.00        40166.82
749.00        40291.97
750.00        40314.23
751.00         40436.8
752.00        40557.36
753.00        40672.21
754.00        40711.82
755.00        41034.03
756.00        40950.68
757.00        40516.21
758.00        40954.61
759.00         41152.5
760.00        41007.19
761.00        41105.84
762.00        40960.77
763.00        41016.63
764.00        41189.36
765.00        41265.52
766.00        41272.11
767.00        41197.12
768.00        41072.96
769.00        40938.33
770.00        41014.18
771.00        41159.61
772.00        41185.45
773.00        41021.35
774.00        40931.62
775.00        41036.73
776.00         41019.2
777.00         40978.1
778.00        40710.19
779.00        40724.45
780.00        40727.71
781.00        40669.25
782.00        40595.86
783.00        40690.97
784.00        40584.67
785.00        40567.05
786.00        40613.12
787.00        40628.87
788.00        40385.46
789.00        40389.91
790.00        40462.49
791.00        40275.28
792.00        40105.11
793.00        40030.08
794.00        40006.69
795.00        39977.14
796.00        39976.34
797.00        39849.88
798.00        39892.14
799.00        39990.16
800.00        39889.63
801.00        39973.08
802.00        39744.71
803.00        39457.57
804.00        39508.63
805.00        39440.39
806.00        39623.38
807.00        39673.33
808.00        39362.76
809.00        39391.07
810.00        39362.21
811.00        39271.88
812.00        39273.45
813.00        39359.89
814.00        39280.57
815.00        38921.66
816.00        39084.01
817.00        39071.58
818.00        39004.58
819.00        38937.73
820.00        38938.21
821.00        38837.48
822.00        38829.87
823.00        38868.45
824.00        38902.25
825.00         39012.9
826.00        38788.98
827.00        38642.54
828.00        38743.88
829.00        38746.03
830.00        38663.74
831.00        38747.08
832.00        38870.08
833.00        38660.75
834.00        38629.68
835.00        38757.37
836.00        38891.97
837.00        38920.75
838.00        39004.79
839.00        39032.27
840.00           38920
841.00        38972.77
842.00        39003.29
843.00        39174.51
844.00        39192.76
845.00        38995.75
846.00        39128.27
847.00        39273.74
848.00        39259.37
849.00        39166.01
850.00        39419.93
851.00        39451.78
852.00        39398.06
853.00        39403.64
854.00        39389.33
855.00        39553.51
856.00        39733.38
857.00        39821.49
858.00        39822.37
859.00        39752.27
860.00        39824.88
861.00        39929.45
862.00        39927.71
863.00        39983.05
864.00        39896.35
865.00        40087.48
866.00        40279.48
867.00         40112.4
868.00        40373.36
869.00        40297.91
870.00        40285.43
871.00        40407.87
872.00         40156.5
873.00        40107.59
874.00        40156.94
875.00        40095.39
876.00        40036.79
877.00        39941.64
878.00        40044.27
879.00        40257.11
880.00        40328.62
881.00        40303.71
882.00        40177.07
883.00        40338.89
884.00        40641.27
885.00        40527.84
886.00        40730.42
887.00        40723.86
888.00        40788.33
889.00        41029.02
890.00        41043.05
891.00        41055.17
892.00        41115.77
893.00         41296.5
894.00        41506.98
895.00        41240.81
896.00         41392.3
897.00        41497.53
898.00        41414.73
899.00        41611.86
900.00        41442.55
901.00        41279.04
902.00         41166.1
903.00        41079.75
904.00        41110.21
905.00        41216.14
906.00        40950.16
907.00        40816.82
908.00        40910.29
909.00        40839.18
910.00        40694.26
911.00        40513.54
912.00        40356.91
913.00         40276.7
914.00        40200.52
915.00        39896.45
916.00        39559.26
917.00        39437.88
918.00        39118.65
919.00        39059.82
920.00        38907.72
921.00        38610.88
922.00        38232.11
923.00        37800.21
924.00         37433.5
925.00        37173.58
926.00        36831.13
927.00        36351.79
928.00        35963.57
929.00        35569.03
930.00        35208.66
931.00        34374.96
932.00        33557.74
933.00        32623.58
934.00        31236.03
935.00        29907.55
936.00        28037.47
937.00        26128.85
938.00        24475.22
939.00        23046.27
940.00        21846.18
941.00        20978.97
942.00        20474.65
943.00        20213.31
944.00        20290.73
945.00        20366.91
946.00        20683.64
947.00         21223.2
948.00        21604.45
949.00        22080.83
950.00        22718.65
951.00        23293.36
952.00        23801.22
953.00         24406.7
954.00        24798.42
955.00        25338.23
956.00        25748.13
957.00         26107.2
958.00        26679.85
959.00        26968.18
960.00        27240.84
961.00        27490.16
962.00        27795.18
963.00        28019.61
964.00         27986.9
965.00        27743.48
966.00        27852.81
967.00        27915.99
968.00        27806.24
969.00        27803.52
970.00        27847.75
971.00        27994.24
972.00        28012.69
973.00        27933.88
974.00        27985.68
975.00        28203.75
976.00        28050.23
977.00        27878.57
978.00        27630.45
979.00        27432.09
980.00        27357.12
981.00        27144.74
982.00        27072.28
983.00        26889.58
984.00         26663.4
985.00         26423.4
986.00        26153.14
987.00        26015.97
988.00        25700.18
989.00         25214.5
990.00        24732.41
991.00        24194.26
992.00        23259.02
993.00        22616.62
994.00        22150.56
995.00        21340.12
996.00         20589.6
997.00        19973.47
998.00         19100.3
999.00        18657.52
1000.00        17878.71
1001.00        17176.48
1002.00        16542.51
1003.00        15873.11
1004.00         15196.5
1005.00        14483.07
1006.00        13838.96
1007.00        13216.23
1008.00        12604.85
1009.00        12008.87
1010.00         11396.6
1011.00        10725.98
1012.00        10095.99
1013.00        9529.479
1014.00         8965.03
1015.00        8392.254
1016.00        7849.332
1017.00        7337.965
1018.00        6707.247
1019.00        6358.708
1020.00        5737.729
