SpectraSmart Spectrum 2.6.17.30709
--------- Device Information -----------
Spectrum Name :  Spectrum_0
Saving Time :  2021/11/14 21:11:30
Spectro-Module Model Name : SE1030-VNIR
Spectro-Module Serial Number : OS361AC55010184
Wavelength Start : 350
Wavelength End : 1020
Wavelength Unit : Wavelength(nm)
Spectrum Unit : Intensity(Counts)
-----------Spectrum Setting ------------
Integration Time : 50ms
Average : 1
Boxcar : 0
Background removal :  enabled
linearity correction :  enabled
SC :  disabled
Intensity correction :  disabled
DWT denoise :  enabled
savitzky-golay :  disabled
FFT :  disabled
Running average :  disabled
Kalman :  disabled
High pass :  disabled
---------------BEGIN--------------------
Wavelength(nm)          Intensity(Counts)
350.00        60.16719
351.00        61.01722
352.00        67.14235
353.00         76.5296
354.00        81.33021
355.00        80.99873
356.00        78.59767
357.00        79.34858
358.00        79.05042
359.00        71.10499
360.00        76.73689
361.00        91.32089
362.00        98.60629
363.00        96.32352
364.00        87.91348
365.00         79.1125
366.00        89.42258
367.00        102.1894
368.00        90.60494
369.00        83.16177
370.00        85.55589
371.00         91.5563
372.00        87.73875
373.00        80.97982
374.00        86.78507
375.00        89.95244
376.00        89.98308
377.00        89.90173
378.00        96.75594
379.00        96.65947
380.00        72.14709
381.00        86.19318
382.00        116.6447
383.00        111.1145
384.00        107.0491
385.00        102.7852
386.00        86.81092
387.00        82.62362
388.00        86.96895
389.00        88.45935
390.00        81.90359
391.00        78.88995
392.00        92.71419
393.00        101.9992
394.00         105.033
395.00        107.7947
396.00        102.6596
397.00          98.076
398.00        100.8162
399.00        109.3134
400.00        106.8989
401.00        86.11682
402.00        105.8745
403.00        133.2096
404.00        123.2838
405.00        107.3326
406.00        101.3508
407.00        111.6152
408.00        113.8281
409.00        115.0434
410.00          124.38
411.00         120.108
412.00        113.7235
413.00        116.1814
414.00        96.71119
415.00        97.32207
416.00        134.6498
417.00        121.6819
418.00        104.4049
419.00         117.721
420.00        108.3524
421.00        106.6277
422.00         123.552
423.00        118.9289
424.00        115.2446
425.00        121.6247
426.00        116.2842
427.00        109.4648
428.00        106.0386
429.00        96.93856
430.00        110.2694
431.00        138.5204
432.00        133.2153
433.00        127.7092
434.00        128.5544
435.00        116.3168
436.00        115.6255
437.00        123.3443
438.00        120.9389
439.00        117.0783
440.00        117.8458
441.00        125.5371
442.00        131.8214
443.00        131.0224
444.00        121.0857
445.00        124.6665
446.00          128.06
447.00        111.7545
448.00        139.7407
449.00        162.8892
450.00         130.145
451.00        128.5451
452.00        139.8228
453.00        135.8831
454.00        143.0259
455.00        157.8756
456.00        170.9771
457.00        173.5874
458.00         161.916
459.00        145.4953
460.00        163.8242
461.00        163.0982
462.00        138.8073
463.00        177.6699
464.00        186.3957
465.00        155.0175
466.00        161.3715
467.00        179.3803
468.00        194.3004
469.00        200.2038
470.00        185.1663
471.00        171.2229
472.00        188.4152
473.00        191.8282
474.00        197.0291
475.00        230.7448
476.00        219.3705
477.00        205.6056
478.00        236.3174
479.00         219.994
480.00        211.2039
481.00        249.3539
482.00        249.9054
483.00        244.1204
484.00        253.9231
485.00         259.615
486.00        259.6135
487.00        258.9128
488.00        274.8823
489.00        284.1947
490.00        283.4224
491.00         285.889
492.00        299.2046
493.00        313.5525
494.00        314.6773
495.00        305.1581
496.00        308.4615
497.00        337.6634
498.00        358.5763
499.00        352.3231
500.00        327.0686
501.00        352.7236
502.00        373.9304
503.00        356.0121
504.00        375.7922
505.00        397.8897
506.00        405.5544
507.00        418.0863
508.00        426.5382
509.00        433.5995
510.00        447.4057
511.00        460.8651
512.00        473.8636
513.00        488.6371
514.00        505.9942
515.00        520.7804
516.00        530.7112
517.00        557.9907
518.00        584.5533
519.00        594.8283
520.00        614.0104
521.00        627.2021
522.00        634.1749
523.00        668.2391
524.00        692.0192
525.00        708.4492
526.00        764.2557
527.00         764.973
528.00        757.8744
529.00        832.1371
530.00        857.0999
531.00        858.4122
532.00        896.2245
533.00        931.5574
534.00        968.5505
535.00        1004.917
536.00        1006.972
537.00        1048.977
538.00        1136.195
539.00         1183.12
540.00        1184.791
541.00         1186.37
542.00        1250.885
543.00        1301.465
544.00        1330.846
545.00        1365.763
546.00        1424.301
547.00        1487.989
548.00        1533.996
549.00        1574.142
550.00        1610.297
551.00        1646.552
552.00        1680.989
553.00        1730.696
554.00        1780.196
555.00        1803.498
556.00        1833.599
557.00        1894.065
558.00        1982.813
559.00        2007.088
560.00        2035.629
561.00         2124.25
562.00        2153.498
563.00         2223.12
564.00        2327.967
565.00        2320.501
566.00        2373.747
567.00        2479.316
568.00        2530.923
569.00        2561.877
570.00        2578.625
571.00        2598.545
572.00        2666.526
573.00        2727.803
574.00        2748.586
575.00        2771.716
576.00        2807.324
577.00        2859.539
578.00        2912.377
579.00        3008.086
580.00        3077.968
581.00        3064.753
582.00        3119.785
583.00        3187.568
584.00        3208.956
585.00        3216.736
586.00        3272.812
587.00        3363.665
588.00        3395.995
589.00        3419.542
590.00        3435.341
591.00        3437.808
592.00        3514.345
593.00        3587.424
594.00        3602.742
595.00        3656.757
596.00        3725.512
597.00        3783.352
598.00        3815.731
599.00         3814.65
600.00        3818.527
601.00        3851.719
602.00        3868.353
603.00        3847.185
604.00        3836.631
605.00        4014.026
606.00        4113.729
607.00        4095.123
608.00        4138.781
609.00        4214.625
610.00         4308.88
611.00        4392.319
612.00        4461.125
613.00        4500.977
614.00        4535.034
615.00        4648.094
616.00        4716.268
617.00        4761.752
618.00        4881.117
619.00        4934.435
620.00        4990.185
621.00        5114.466
622.00        5191.712
623.00        5272.814
624.00        5366.218
625.00        5417.476
626.00        5545.778
627.00        5661.532
628.00        5667.328
629.00        5740.267
630.00        5863.606
631.00        5988.933
632.00        6083.995
633.00        6189.553
634.00        6313.926
635.00        6433.835
636.00        6532.604
637.00        6619.533
638.00         6726.85
639.00        6900.717
640.00        7054.614
641.00         7156.34
642.00        7238.358
643.00        7394.146
644.00        7552.629
645.00        7642.948
646.00        7774.726
647.00        7936.831
648.00        8086.071
649.00        8181.807
650.00        8274.608
651.00        8442.142
652.00        8691.931
653.00         8860.13
654.00        8981.063
655.00        9109.033
656.00        9247.773
657.00        9457.315
658.00        9624.082
659.00        9669.286
660.00        9911.815
661.00        10079.05
662.00        10118.53
663.00        10352.57
664.00        10586.02
665.00        10810.01
666.00         11050.7
667.00        11225.14
668.00        11347.69
669.00        11475.01
670.00        11676.02
671.00        11930.66
672.00        12201.08
673.00        12446.36
674.00        12580.88
675.00        12776.36
676.00        13046.09
677.00        13216.71
678.00        13382.14
679.00        13612.25
680.00        13902.15
681.00         14049.9
682.00        14257.84
683.00         14547.8
684.00        14772.88
685.00        14950.24
686.00         15203.1
687.00         15500.5
688.00         15704.2
689.00        15920.47
690.00        16189.23
691.00        16479.58
692.00        16712.27
693.00        16932.68
694.00        17183.87
695.00        17426.15
696.00        17664.36
697.00         17884.7
698.00        18086.38
699.00        18421.15
700.00        18627.28
701.00         18733.2
702.00        19095.36
703.00        19319.07
704.00        19514.65
705.00        19832.28
706.00        19997.25
707.00        20268.41
708.00        20562.43
709.00        20654.79
710.00        21000.55
711.00        21189.02
712.00        21223.11
713.00        21422.24
714.00        21616.74
715.00           21804
716.00        21984.77
717.00        22078.79
718.00        22168.85
719.00        22262.01
720.00        22312.45
721.00        22463.74
722.00        22576.68
723.00        22639.14
724.00        22877.07
725.00        23066.39
726.00        23220.86
727.00         23414.9
728.00        23621.09
729.00        23779.78
730.00        23895.15
731.00           24003
732.00        24102.53
733.00        24242.89
734.00         24359.9
735.00        24423.95
736.00        24556.56
737.00        24758.34
738.00        24971.32
739.00        25133.17
740.00        25299.32
741.00           25471
742.00        25606.49
743.00        25643.52
744.00        25688.52
745.00        25797.16
746.00        25898.44
747.00         25914.3
748.00        26004.54
749.00        26148.17
750.00        26293.43
751.00        26254.58
752.00        26379.49
753.00        26576.78
754.00        26592.16
755.00         26611.3
756.00        26621.26
757.00        26730.89
758.00         26668.6
759.00        26732.69
760.00        26814.49
761.00        26663.51
762.00        26749.92
763.00        26815.83
764.00        26801.74
765.00        26801.63
766.00        26912.17
767.00        27027.35
768.00        27034.33
769.00        27077.09
770.00        27061.17
771.00        27088.93
772.00        27123.33
773.00        26953.78
774.00        26998.34
775.00        27007.18
776.00        26942.11
777.00        26898.33
778.00        26780.02
779.00        26852.65
780.00        26980.33
781.00        26884.16
782.00        26806.67
783.00        26838.35
784.00        26784.31
785.00        26739.14
786.00         26691.8
787.00        26698.99
788.00        26779.18
789.00        26847.41
790.00        26864.18
791.00        26833.68
792.00        26788.44
793.00        26688.62
794.00        26607.69
795.00        26674.09
796.00        26748.19
797.00        26477.51
798.00        26434.12
799.00        26503.51
800.00        26539.01
801.00        26610.91
802.00        26545.47
803.00        26465.37
804.00        26499.71
805.00        26435.13
806.00        26513.03
807.00        26593.01
808.00        26486.66
809.00        26429.74
810.00        26405.26
811.00        26407.51
812.00        26412.27
813.00        26356.81
814.00        26329.16
815.00        26323.02
816.00        26224.29
817.00        26267.64
818.00        26232.52
819.00         26219.7
820.00         26206.3
821.00        26230.17
822.00        26178.17
823.00        26151.27
824.00         26197.1
825.00        26155.11
826.00        26086.74
827.00        26045.39
828.00        26115.77
829.00        26176.34
830.00        26048.98
831.00        26274.15
832.00        26210.31
833.00         26253.3
834.00        26272.61
835.00        26287.36
836.00        26294.85
837.00        26304.84
838.00        26435.95
839.00        26450.63
840.00        26410.05
841.00        26472.42
842.00         26438.2
843.00        26519.12
844.00        26677.71
845.00        26720.05
846.00        26741.56
847.00        26757.42
848.00        26833.44
849.00        26892.56
850.00         26921.2
851.00        26806.14
852.00        26977.41
853.00        27151.93
854.00        27028.14
855.00        27089.91
856.00        27231.54
857.00        27349.98
858.00        27363.04
859.00         27224.4
860.00        27284.57
861.00        27354.55
862.00        27325.07
863.00        27369.62
864.00        27405.43
865.00        27518.14
866.00        27624.11
867.00           27616
868.00        27772.46
869.00        27602.59
870.00        27535.92
871.00        27797.37
872.00        27631.89
873.00        27608.67
874.00        27635.55
875.00        27661.55
876.00        27690.06
877.00        27626.55
878.00        27494.74
879.00        27540.99
880.00        27782.76
881.00        27862.33
882.00        27754.74
883.00        27892.71
884.00         27930.5
885.00        28006.64
886.00        28216.52
887.00        28192.36
888.00        28152.07
889.00        28258.78
890.00        28336.44
891.00        28287.23
892.00        28433.55
893.00        28613.69
894.00        28431.33
895.00        28588.82
896.00        28525.23
897.00        28566.61
898.00        28720.94
899.00         28608.4
900.00        28618.06
901.00        28600.19
902.00        28568.07
903.00        28564.14
904.00        28450.05
905.00        28507.93
906.00        28470.41
907.00        28406.21
908.00        28294.56
909.00        28421.25
910.00        28345.71
911.00        28156.04
912.00        28040.88
913.00        28023.73
914.00        27966.31
915.00        27771.44
916.00        27618.25
917.00         27500.1
918.00        27363.65
919.00        27263.43
920.00        27083.98
921.00        26846.03
922.00        26671.76
923.00        26589.92
924.00        26368.02
925.00        26084.59
926.00        25764.58
927.00        25446.88
928.00        25204.13
929.00        24788.63
930.00        24441.94
931.00        24068.59
932.00        23497.49
933.00        22757.43
934.00        21952.15
935.00        20802.76
936.00        19568.65
937.00        18411.85
938.00        17179.87
939.00        16085.28
940.00        15282.25
941.00        14767.35
942.00         14424.4
943.00        14180.93
944.00        14205.86
945.00        14268.98
946.00        14492.58
947.00        14866.75
948.00        15172.44
949.00        15538.32
950.00        15938.82
951.00        16333.29
952.00        16754.19
953.00        17217.96
954.00        17431.76
955.00        18000.42
956.00         18249.7
957.00        18373.61
958.00        18810.98
959.00        19013.75
960.00        19305.54
961.00        19455.35
962.00         19666.5
963.00        19909.84
964.00         19835.3
965.00        19809.81
966.00        19795.62
967.00        19815.32
968.00        19880.59
969.00        19934.89
970.00        19840.42
971.00        19896.92
972.00        19966.12
973.00        19915.66
974.00        19928.47
975.00        20217.06
976.00        20067.25
977.00        19993.85
978.00        19853.54
979.00        19712.68
980.00        19650.76
981.00        19404.19
982.00        19248.19
983.00        19078.98
984.00        18979.85
985.00        18861.35
986.00        18628.87
987.00        18438.83
988.00        18304.63
989.00        17991.67
990.00        17575.28
991.00        17160.14
992.00        16760.09
993.00        16241.59
994.00        15852.53
995.00        15368.61
996.00        14855.96
997.00        14443.72
998.00        14036.42
999.00        13401.81
1000.00        12949.35
1001.00        12567.75
1002.00        12070.17
1003.00        11543.41
1004.00        11134.94
1005.00        10561.25
1006.00        10094.56
1007.00        9566.226
1008.00        9106.652
1009.00        8702.337
1010.00        8212.225
1011.00        7715.824
1012.00        7323.268
1013.00        6975.556
1014.00        6483.962
1015.00        6019.341
1016.00        5691.784
1017.00        5291.761
1018.00        4903.228
1019.00        4667.605
1020.00        4232.215
