SpectraSmart Spectrum 2.6.17.30709
--------- Device Information -----------
Spectrum Name :  Spectrum_0
Saving Time :  2021/11/14 20:37:34
Spectro-Module Model Name : SE1030-VNIR
Spectro-Module Serial Number : OS361AC55010184
Wavelength Start : 350
Wavelength End : 1020
Wavelength Unit : Wavelength(nm)
Spectrum Unit : Intensity(Counts)
-----------Spectrum Setting ------------
Integration Time : 50ms
Average : 1
Boxcar : 0
Background removal :  enabled
linearity correction :  enabled
SC :  disabled
Intensity correction :  disabled
DWT denoise :  enabled
savitzky-golay :  disabled
FFT :  disabled
Running average :  disabled
Kalman :  disabled
High pass :  disabled
---------------BEGIN--------------------
Wavelength(nm)          Intensity(Counts)
350.00        83.66853
351.00        82.07822
352.00        83.28592
353.00        94.51424
354.00        100.2815
355.00        102.4618
356.00        107.9676
357.00        116.8373
358.00        118.7902
359.00         102.949
360.00        107.6161
361.00        124.1407
362.00        124.9805
363.00        118.4518
364.00        114.2481
365.00        119.2667
366.00        128.2044
367.00        129.5516
368.00        111.7895
369.00        129.7686
370.00        155.2338
371.00        130.0188
372.00        131.3416
373.00        147.8026
374.00        134.2308
375.00         133.094
376.00        141.9263
377.00        142.6759
378.00        136.8685
379.00        129.7249
380.00        130.3575
381.00        129.7435
382.00        135.4807
383.00        155.3895
384.00        156.1333
385.00        138.5286
386.00        117.7591
387.00        132.2935
388.00        148.5373
389.00        118.2242
390.00        125.2728
391.00        151.7092
392.00        149.7815
393.00        133.1911
394.00        124.0668
395.00        140.8874
396.00        146.2984
397.00        144.7027
398.00        150.9156
399.00        162.5227
400.00        159.8028
401.00        132.0578
402.00        134.4224
403.00        153.8373
404.00        158.9243
405.00        171.8716
406.00        172.8784
407.00        151.1958
408.00        155.8239
409.00         164.256
410.00        150.7934
411.00        150.9381
412.00        152.5273
413.00        144.8741
414.00        151.1492
415.00        156.2118
416.00        149.9874
417.00        158.4367
418.00        160.7357
419.00        146.9342
420.00        147.7738
421.00        152.1455
422.00        151.3845
423.00        149.7413
424.00        154.3674
425.00        164.7834
426.00        173.2007
427.00         160.788
428.00        138.6709
429.00        159.1456
430.00        173.9604
431.00        166.8013
432.00        160.6605
433.00        170.2244
434.00        185.4041
435.00        171.2034
436.00        165.4763
437.00        175.1343
438.00        181.6432
439.00        189.3062
440.00        191.1644
441.00        179.4169
442.00        183.8532
443.00         195.714
444.00        192.4564
445.00        201.1791
446.00        212.2362
447.00        209.0168
448.00        217.2604
449.00        225.0783
450.00        218.0454
451.00        230.7399
452.00        238.4801
453.00        223.1139
454.00        238.1812
455.00        250.9003
456.00        236.9874
457.00        227.6544
458.00        240.1889
459.00        271.9743
460.00        278.7104
461.00        281.6385
462.00        289.0363
463.00        277.4373
464.00        283.7131
465.00        310.1678
466.00        327.2144
467.00        328.2222
468.00        324.1848
469.00        342.1959
470.00        330.0623
471.00        315.3673
472.00        354.3282
473.00        356.6094
474.00        352.5228
475.00         395.813
476.00        396.5092
477.00        382.4988
478.00        396.8611
479.00        387.5483
480.00        387.1399
481.00        416.8919
482.00        427.4653
483.00        432.2921
484.00        440.3923
485.00        429.3808
486.00        442.8566
487.00        481.3039
488.00        489.8488
489.00        493.4223
490.00        507.3035
491.00        540.8923
492.00        531.8797
493.00        510.3091
494.00         543.796
495.00        565.2882
496.00        576.8351
497.00         600.031
498.00        606.7573
499.00        615.5161
500.00        641.0635
501.00        655.9283
502.00        666.3335
503.00         682.661
504.00        711.1026
505.00        741.0308
506.00        767.4636
507.00        798.4044
508.00        819.9263
509.00        829.5274
510.00         831.114
511.00        869.4421
512.00        918.7385
513.00        929.7548
514.00         956.749
515.00        991.0338
516.00         1012.01
517.00        1043.498
518.00        1079.507
519.00        1114.327
520.00         1153.93
521.00        1199.093
522.00        1246.661
523.00        1283.786
524.00        1329.455
525.00         1379.19
526.00        1408.836
527.00        1458.526
528.00        1525.747
529.00        1589.386
530.00        1616.873
531.00        1654.609
532.00        1745.996
533.00        1793.675
534.00        1854.741
535.00        1964.641
536.00        2023.453
537.00        2088.904
538.00         2174.84
539.00        2223.147
540.00        2295.759
541.00        2391.688
542.00        2476.049
543.00        2530.964
544.00        2601.314
545.00        2728.428
546.00        2828.019
547.00        2906.089
548.00        2983.197
549.00        3035.884
550.00        3107.722
551.00        3205.995
552.00        3269.043
553.00        3376.986
554.00        3504.401
555.00        3564.596
556.00        3652.609
557.00        3755.521
558.00        3834.428
559.00        3930.565
560.00        4038.638
561.00         4145.48
562.00         4249.47
563.00        4337.271
564.00        4418.764
565.00        4534.874
566.00        4622.313
567.00        4707.112
568.00        4847.647
569.00        4947.067
570.00        5017.221
571.00         5104.38
572.00        5202.058
573.00        5313.762
574.00        5413.199
575.00         5429.36
576.00        5485.708
577.00        5590.434
578.00        5652.046
579.00        5732.085
580.00        5829.069
581.00         5920.73
582.00         6059.75
583.00        6137.408
584.00        6128.777
585.00        6244.726
586.00        6373.264
587.00        6446.636
588.00        6480.932
589.00        6525.522
590.00        6612.257
591.00        6735.891
592.00        6833.179
593.00        6932.302
594.00        7044.577
595.00        7074.349
596.00        7122.916
597.00        7221.493
598.00        7314.084
599.00        7388.362
600.00        7436.139
601.00        7470.718
602.00        7403.518
603.00        7452.265
604.00        7684.634
605.00        7703.798
606.00        7791.782
607.00        7977.246
608.00        8057.217
609.00        8170.479
610.00        8280.829
611.00        8340.672
612.00         8473.83
613.00         8608.84
614.00        8717.851
615.00        8924.986
616.00        9023.506
617.00         9079.21
618.00        9276.943
619.00        9424.889
620.00         9546.02
621.00        9697.812
622.00        9878.581
623.00        9987.564
624.00        10031.74
625.00        10196.57
626.00        10427.54
627.00        10673.12
628.00        10837.55
629.00        10912.75
630.00        11074.14
631.00        11364.66
632.00        11556.82
633.00         11712.3
634.00        11893.92
635.00        12135.45
636.00        12351.03
637.00        12530.88
638.00        12714.12
639.00        12988.46
640.00        13218.37
641.00        13397.58
642.00        13639.37
643.00        13884.05
644.00        14147.81
645.00        14424.79
646.00        14542.12
647.00        14782.75
648.00        15145.78
649.00        15320.59
650.00        15576.45
651.00        15898.28
652.00        16186.81
653.00        16450.23
654.00        16720.47
655.00        17014.54
656.00        17299.24
657.00        17583.73
658.00        17840.12
659.00        18071.42
660.00        18452.46
661.00        18797.11
662.00        19056.64
663.00        19420.14
664.00        19781.64
665.00        20111.74
666.00        20421.52
667.00        20830.69
668.00        21137.62
669.00        21340.89
670.00        21724.57
671.00        22108.43
672.00           22501
673.00        22928.33
674.00        23308.07
675.00        23579.38
676.00        23849.62
677.00        24345.38
678.00        24738.15
679.00        25075.28
680.00        25499.12
681.00        25934.38
682.00         26364.5
683.00        26787.79
684.00        27221.28
685.00        27665.63
686.00        28079.74
687.00           28463
688.00         28983.3
689.00        29354.16
690.00         29644.9
691.00        30108.66
692.00        30554.33
693.00        31001.97
694.00        31483.58
695.00        31995.07
696.00        32424.99
697.00         32806.8
698.00           33185
699.00        33765.62
700.00        34070.87
701.00        34296.27
702.00        34942.81
703.00        35374.32
704.00        35696.49
705.00        36133.78
706.00        36589.38
707.00        36865.33
708.00        37074.16
709.00        37547.06
710.00        38160.99
711.00        38497.13
712.00        38561.09
713.00        39125.25
714.00        39122.26
715.00        39558.28
716.00        39764.75
717.00        39960.45
718.00        40179.82
719.00        40293.34
720.00        40578.15
721.00        40790.43
722.00        40887.52
723.00        41002.49
724.00        41421.34
725.00        41684.13
726.00        41939.84
727.00        42375.87
728.00        42517.54
729.00        42721.97
730.00        42951.38
731.00        43061.75
732.00        43335.77
733.00        43733.63
734.00        43714.47
735.00        44171.07
736.00        44505.08
737.00        44654.83
738.00        44803.81
739.00        44924.02
740.00        45222.93
741.00        45602.09
742.00        45694.77
743.00        45927.31
744.00        46101.88
745.00        46178.94
746.00        46276.28
747.00        46720.76
748.00        46502.25
749.00        46789.14
750.00        46940.38
751.00        47080.76
752.00        47265.32
753.00        47292.27
754.00        47416.68
755.00         47558.2
756.00        47851.13
757.00        47682.35
758.00        47733.27
759.00        47836.73
760.00        47869.53
761.00        47700.05
762.00        47832.67
763.00        47978.22
764.00         48028.8
765.00        48060.23
766.00        48055.59
767.00        48052.27
768.00        47964.78
769.00        48019.54
770.00        47959.78
771.00        47984.08
772.00        48172.14
773.00        47927.95
774.00        47869.58
775.00        47879.29
776.00        47807.22
777.00        47552.79
778.00        47636.18
779.00        47679.57
780.00        47435.24
781.00        47652.23
782.00        47603.49
783.00        47891.79
784.00        47739.58
785.00        47529.12
786.00           47591
787.00        47629.76
788.00        47521.58
789.00        47438.07
790.00        47377.04
791.00        47293.91
792.00        47278.95
793.00        47288.75
794.00        47261.23
795.00        47238.55
796.00         47060.7
797.00        46926.13
798.00        46841.27
799.00         46751.7
800.00        47050.54
801.00        46782.53
802.00        46821.51
803.00        46838.64
804.00         46437.2
805.00        46496.68
806.00        46770.31
807.00        46702.94
808.00        46405.15
809.00        46393.04
810.00        46172.68
811.00        46343.16
812.00        46416.19
813.00        46162.89
814.00        46207.07
815.00        46216.75
816.00        45926.09
817.00        46375.15
818.00           46412
819.00         45982.5
820.00        45755.46
821.00        45953.79
822.00        45828.54
823.00        45798.38
824.00        46073.22
825.00        45901.36
826.00        45833.58
827.00        45828.21
828.00        45934.16
829.00        45964.85
830.00        45771.83
831.00        45857.15
832.00        46045.35
833.00        45703.32
834.00         46064.2
835.00        46202.08
836.00        45993.61
837.00        45953.39
838.00        45957.76
839.00        46112.87
840.00        46156.78
841.00        46042.63
842.00        46206.68
843.00        46386.61
844.00        46459.81
845.00        46467.76
846.00        46542.14
847.00         46724.3
848.00        46741.31
849.00        46624.42
850.00        46870.27
851.00        46898.83
852.00        46913.14
853.00        47028.52
854.00        47163.28
855.00        47038.73
856.00        47143.37
857.00        47316.85
858.00        47316.04
859.00        47382.31
860.00        47568.41
861.00        47800.31
862.00        47824.24
863.00        47518.23
864.00        47573.04
865.00        47874.29
866.00        48048.87
867.00        47974.34
868.00        48145.37
869.00        48126.68
870.00        48047.21
871.00        47979.73
872.00        47911.09
873.00        47796.98
874.00        47755.13
875.00        47761.99
876.00        47813.34
877.00         47688.1
878.00        47940.75
879.00        47959.13
880.00        47857.05
881.00        48066.47
882.00        48129.68
883.00        48259.24
884.00        48442.11
885.00        48502.66
886.00        48640.14
887.00        48806.49
888.00        48906.04
889.00        48970.14
890.00        49063.46
891.00        49116.96
892.00        49237.01
893.00        49641.96
894.00        49620.21
895.00        49453.98
896.00        49384.35
897.00        49384.62
898.00        49324.05
899.00        49249.38
900.00        49154.76
901.00        49162.32
902.00        49278.09
903.00        49224.13
904.00        49095.17
905.00         49075.9
906.00        48780.25
907.00        48765.43
908.00        48868.62
909.00        48852.33
910.00        48744.77
911.00         48631.1
912.00         48271.9
913.00        48205.32
914.00        48078.77
915.00        47648.07
916.00        47377.43
917.00        47376.06
918.00        47048.92
919.00        47003.04
920.00        46593.33
921.00        46134.34
922.00        45944.55
923.00        45498.29
924.00         44917.2
925.00        44817.45
926.00        44437.45
927.00        43741.68
928.00        43190.77
929.00        42564.58
930.00        42067.71
931.00        41223.54
932.00        40180.86
933.00        38906.73
934.00        37513.86
935.00        35803.84
936.00        33639.38
937.00        31462.96
938.00        29450.78
939.00        27774.32
940.00        26325.18
941.00        25335.88
942.00        24815.03
943.00        24395.94
944.00        24304.51
945.00        24421.28
946.00         24866.4
947.00        25481.15
948.00        25939.66
949.00        26639.14
950.00        27330.85
951.00        27993.59
952.00        28636.04
953.00        29253.29
954.00        29816.65
955.00        30537.67
956.00        31088.13
957.00        31516.53
958.00        32071.69
959.00        32644.76
960.00           32955
961.00        33254.75
962.00        33578.94
963.00        33730.46
964.00         33614.7
965.00        33414.73
966.00        33705.64
967.00        33764.24
968.00        33783.14
969.00        33716.11
970.00        33704.71
971.00        33728.15
972.00        33901.53
973.00        33766.57
974.00        33857.11
975.00        34213.52
976.00        34128.69
977.00        33884.94
978.00        33613.53
979.00        33392.05
980.00        33170.46
981.00        32865.52
982.00        32733.87
983.00        32390.38
984.00        32088.93
985.00        31852.09
986.00         31481.9
987.00        31308.26
988.00        31061.77
989.00        30555.14
990.00        29851.65
991.00        29108.63
992.00        28369.71
993.00        27475.93
994.00        26705.35
995.00        25880.04
996.00        25053.63
997.00        24158.97
998.00        23298.15
999.00        22461.54
1000.00        21758.85
1001.00         20802.4
1002.00        19877.79
1003.00        19136.82
1004.00        18376.07
1005.00        17391.61
1006.00        16653.13
1007.00        15819.69
1008.00        15005.48
1009.00        14266.51
1010.00        13519.68
1011.00        12838.31
1012.00        12062.26
1013.00        11321.65
1014.00        10628.45
1015.00        10031.85
1016.00        9427.293
1017.00        8681.254
1018.00        8210.098
1019.00        7675.615
1020.00        6915.659
