SpectraSmart Spectrum 2.6.17.30709
--------- Device Information -----------
Spectrum Name :  Spectrum_0
Saving Time :  2021/11/14 20:36:41
Spectro-Module Model Name : SE1030-VNIR
Spectro-Module Serial Number : OS361AC55010184
Wavelength Start : 350
Wavelength End : 1020
Wavelength Unit : Wavelength(nm)
Spectrum Unit : Intensity(Counts)
-----------Spectrum Setting ------------
Integration Time : 50ms
Average : 1
Boxcar : 0
Background removal :  enabled
linearity correction :  enabled
SC :  disabled
Intensity correction :  disabled
DWT denoise :  enabled
savitzky-golay :  disabled
FFT :  disabled
Running average :  disabled
Kalman :  disabled
High pass :  disabled
---------------BEGIN--------------------
Wavelength(nm)          Intensity(Counts)
350.00        108.0793
351.00        112.5758
352.00         133.425
353.00        120.7408
354.00        118.5108
355.00        128.0546
356.00        136.2451
357.00        133.4593
358.00        131.1728
359.00        146.6073
360.00        160.8706
361.00        162.6531
362.00        149.5447
363.00        144.5841
364.00        150.0183
365.00        155.1935
366.00        155.4476
367.00        153.0453
368.00        154.9864
369.00        161.0961
370.00        168.9202
371.00        175.3399
372.00        171.4518
373.00        164.1834
374.00        166.2399
375.00        166.1794
376.00         165.881
377.00        172.5098
378.00        161.6487
379.00        147.7539
380.00        156.5123
381.00        165.2379
382.00        170.6261
383.00        177.4578
384.00        181.5863
385.00        182.0686
386.00        179.3717
387.00        168.2291
388.00         159.653
389.00        167.0429
390.00         175.209
391.00        185.0441
392.00        201.2492
393.00         197.426
394.00        186.6749
395.00        191.0939
396.00        179.5111
397.00        168.3978
398.00         179.998
399.00        172.8778
400.00        164.7025
401.00        180.3104
402.00          177.08
403.00        174.2399
404.00        194.8177
405.00        201.5029
406.00        200.1055
407.00        203.9288
408.00        190.8937
409.00         189.408
410.00        215.5442
411.00        213.6629
412.00        201.7811
413.00        203.7916
414.00         206.389
415.00        206.6911
416.00        201.7034
417.00         205.924
418.00        197.0634
419.00        172.8222
420.00        200.0344
421.00        214.9553
422.00        188.0623
423.00        195.9062
424.00        207.5938
425.00        203.7026
426.00        198.7861
427.00        193.3764
428.00        194.9103
429.00        218.9854
430.00        224.7861
431.00        208.3666
432.00        213.7202
433.00        210.7687
434.00        200.2902
435.00        207.7777
436.00        218.7868
437.00        225.3833
438.00        228.8675
439.00        214.5384
440.00        206.9469
441.00        239.3672
442.00        249.6133
443.00        237.1664
444.00        229.7884
445.00        248.0668
446.00        266.9002
447.00         254.444
448.00        256.9952
449.00        271.2542
450.00        280.8164
451.00          293.69
452.00        303.4146
453.00        306.1616
454.00        311.2581
455.00        313.9234
456.00        313.3742
457.00        327.1017
458.00        343.1123
459.00        353.8309
460.00        380.3478
461.00        380.9467
462.00        356.7632
463.00        375.8523
464.00        390.7894
465.00        388.8714
466.00        394.2194
467.00        407.7107
468.00        418.8927
469.00        408.7719
470.00        420.2418
471.00        447.5416
472.00        462.0764
473.00        468.8614
474.00        473.5762
475.00        483.2962
476.00        489.7918
477.00        501.3199
478.00        524.0316
479.00        543.5213
480.00        558.3886
481.00        570.8603
482.00        579.1715
483.00        591.1713
484.00        605.5172
485.00        601.1089
486.00         606.855
487.00        633.4969
488.00        660.8226
489.00        684.8148
490.00        700.7372
491.00        706.5464
492.00        723.5803
493.00        747.1654
494.00        762.7391
495.00        781.7113
496.00        812.7497
497.00        853.5796
498.00        856.1933
499.00        848.6491
500.00        868.9364
501.00         899.358
502.00        927.9615
503.00        947.0888
504.00        957.7281
505.00        997.7402
506.00        1063.246
507.00        1099.113
508.00        1098.815
509.00        1100.641
510.00        1167.243
511.00        1212.549
512.00        1227.814
513.00        1248.864
514.00          1298.3
515.00        1353.239
516.00        1383.055
517.00        1410.988
518.00        1451.508
519.00         1509.26
520.00        1542.179
521.00        1611.272
522.00        1717.909
523.00         1748.46
524.00        1789.378
525.00        1863.517
526.00        1929.177
527.00         1988.63
528.00         2050.05
529.00        2124.708
530.00        2227.852
531.00        2317.121
532.00        2364.861
533.00        2429.092
534.00        2533.398
535.00        2662.653
536.00        2712.394
537.00        2817.078
538.00         2994.11
539.00        3075.113
540.00        3159.637
541.00        3262.653
542.00        3351.479
543.00        3434.604
544.00        3544.855
545.00         3700.62
546.00          3834.2
547.00        3936.379
548.00         4033.27
549.00        4155.731
550.00        4310.046
551.00        4452.348
552.00        4475.789
553.00         4579.35
554.00        4757.152
555.00        4860.317
556.00        4971.448
557.00        5098.448
558.00        5231.605
559.00        5349.932
560.00        5496.138
561.00        5673.719
562.00        5779.987
563.00        5853.267
564.00        5964.608
565.00         6198.25
566.00         6317.57
567.00        6346.568
568.00        6460.735
569.00        6617.309
570.00        6795.035
571.00        6956.598
572.00        7020.145
573.00        7120.296
574.00         7301.63
575.00        7381.241
576.00         7443.04
577.00        7536.913
578.00        7678.689
579.00        7736.918
580.00         7799.37
581.00        7983.604
582.00        8132.193
583.00        8255.608
584.00        8382.103
585.00        8506.858
586.00        8609.832
587.00        8693.575
588.00        8778.184
589.00        8921.378
590.00        9053.742
591.00        9098.869
592.00        9193.123
593.00        9318.119
594.00        9440.094
595.00        9594.542
596.00        9720.254
597.00         9810.59
598.00        9918.558
599.00        9967.339
600.00        10000.82
601.00        10081.83
602.00        10077.77
603.00        10126.23
604.00        10300.45
605.00        10438.72
606.00        10517.74
607.00        10594.65
608.00        10769.64
609.00        10960.55
610.00        11116.22
611.00        11230.72
612.00        11323.19
613.00        11489.25
614.00        11729.96
615.00        11924.37
616.00        12030.46
617.00           12181
618.00        12530.17
619.00        12695.91
620.00        12778.74
621.00        12961.81
622.00        13158.86
623.00        13363.09
624.00         13565.1
625.00         13765.9
626.00        14022.28
627.00        14255.38
628.00        14398.75
629.00        14623.57
630.00        14903.58
631.00        15187.29
632.00        15470.17
633.00        15713.63
634.00        15961.74
635.00        16270.71
636.00        16560.82
637.00        16812.55
638.00        17047.06
639.00        17301.17
640.00        17637.15
641.00        18004.79
642.00        18313.61
643.00        18444.19
644.00        18697.02
645.00        19241.31
646.00        19503.66
647.00        19754.26
648.00        20110.24
649.00         20442.8
650.00        20760.99
651.00        21114.37
652.00        21534.27
653.00         21838.3
654.00        22210.75
655.00        22665.27
656.00        22950.49
657.00        23382.14
658.00        23809.23
659.00        24035.93
660.00        24381.49
661.00        24827.26
662.00        25330.93
663.00        25814.53
664.00        26197.15
665.00        26581.83
666.00        27132.72
667.00        27549.32
668.00        27946.54
669.00        28353.06
670.00        28629.13
671.00        29157.16
672.00        29799.23
673.00         30287.6
674.00        30765.13
675.00        31196.47
676.00        31647.62
677.00        32247.92
678.00        32688.61
679.00        33087.32
680.00        33633.41
681.00        34227.52
682.00        34744.21
683.00        35233.07
684.00        35867.76
685.00        36478.48
686.00        36992.96
687.00        37508.43
688.00        38149.79
689.00        38804.49
690.00        39304.68
691.00        39589.81
692.00        40350.67
693.00        40882.25
694.00        41341.83
695.00        42062.99
696.00        42656.73
697.00        43117.89
698.00         43566.6
699.00        44263.47
700.00        44828.71
701.00        45308.73
702.00        46016.35
703.00        46348.18
704.00        46679.86
705.00        47352.26
706.00        47821.85
707.00        48241.74
708.00        48710.34
709.00        49236.36
710.00        49934.23
711.00        50426.91
712.00        50677.45
713.00        51129.68
714.00        51629.13
715.00        51780.12
716.00        52435.82
717.00        52676.59
718.00         52940.8
719.00        53272.49
720.00        53795.25
721.00        54102.65
722.00         54241.7
723.00        54750.28
724.00        55193.48
725.00        55376.78
726.00        55722.77
727.00        56143.85
728.00        56204.85
729.00        56494.27
730.00        56939.43
731.00        57092.93
732.00        57250.79
733.00        57466.38
734.00        57738.42
735.00         57984.5
736.00        58269.82
737.00        58422.13
738.00           58462
739.00        58987.23
740.00        59260.56
741.00        59696.61
742.00        59794.36
743.00        60023.66
744.00        60221.78
745.00        60290.94
746.00        60435.98
747.00        60703.98
748.00        60869.26
749.00        60952.54
750.00        61098.31
751.00        61100.55
752.00        61283.16
753.00        61594.75
754.00        61572.47
755.00         61781.3
756.00        61895.27
757.00        61670.19
758.00        61574.73
759.00        62050.66
760.00        62125.58
761.00        61728.02
762.00         61621.7
763.00        61811.87
764.00        61997.91
765.00        61981.11
766.00        62006.09
767.00        62052.14
768.00        61978.71
769.00        61910.52
770.00        61921.05
771.00        61960.04
772.00        62050.15
773.00        61932.42
774.00        61687.54
775.00         61624.1
776.00        61676.48
777.00        61218.91
778.00        61230.84
779.00         61356.3
780.00        61171.03
781.00        61229.46
782.00        61232.63
783.00        61528.55
784.00        60989.11
785.00        60953.54
786.00        61098.51
787.00        61141.11
788.00        61076.87
789.00        61044.96
790.00        60771.89
791.00        60468.11
792.00        60449.93
793.00         60442.5
794.00        60368.17
795.00        60256.64
796.00        60186.88
797.00        60148.65
798.00        60118.24
799.00        60001.32
800.00         59780.4
801.00        59976.02
802.00        59808.05
803.00        59497.82
804.00        59375.61
805.00        59336.25
806.00        59465.83
807.00        59405.81
808.00        59185.96
809.00        59232.13
810.00        59090.52
811.00        58882.11
812.00        58895.81
813.00         59121.8
814.00        59015.91
815.00         58783.8
816.00        58775.16
817.00        58881.13
818.00        58678.39
819.00        58646.84
820.00        58724.27
821.00        58501.48
822.00        58396.35
823.00        58398.92
824.00        58385.76
825.00        58491.03
826.00        58327.79
827.00        58332.48
828.00         58454.6
829.00        58259.94
830.00        58300.49
831.00        58359.39
832.00        58311.45
833.00        58234.05
834.00        58439.27
835.00        58480.99
836.00        58477.09
837.00        58403.72
838.00        58419.13
839.00        58682.64
840.00        58558.54
841.00        58670.82
842.00        58516.75
843.00        58548.32
844.00        58705.55
845.00        58856.59
846.00        58954.69
847.00        58952.12
848.00        58941.53
849.00        59004.21
850.00        59146.96
851.00        59085.02
852.00        59323.56
853.00        59637.97
854.00        59545.38
855.00         59603.8
856.00        59729.05
857.00        59938.96
858.00        59740.22
859.00         59841.5
860.00         60086.6
861.00        60242.25
862.00        60233.59
863.00        60138.55
864.00        60237.28
865.00        60439.09
866.00        60661.34
867.00        60614.56
868.00        60840.27
869.00        60965.29
870.00         61047.5
871.00        61120.38
872.00        61025.88
873.00         61045.3
874.00        61188.42
875.00         61288.2
876.00        61302.37
877.00        61308.67
878.00        61422.64
879.00        61704.16
880.00        61918.14
881.00        62013.52
882.00        61845.41
883.00        61780.43
884.00        61829.43
885.00         61839.7
886.00        62138.81
887.00        62019.75
888.00        61922.38
889.00        62151.76
890.00        62147.34
891.00        62170.71
892.00        62211.59
893.00        62401.88
894.00        62628.76
895.00        62326.89
896.00        62345.71
897.00        62425.59
898.00        62518.29
899.00         62406.5
900.00        62121.47
901.00        62131.01
902.00        62210.36
903.00        61942.89
904.00        62087.73
905.00        62170.78
906.00        62003.28
907.00        61780.31
908.00        61837.74
909.00        61765.93
910.00        61522.05
911.00        61410.12
912.00        60936.72
913.00        61104.05
914.00        60773.69
915.00        60486.18
916.00        60280.34
917.00        60014.14
918.00        59658.38
919.00        59740.36
920.00        59371.56
921.00        59023.19
922.00        58906.74
923.00        58352.14
924.00        58142.85
925.00        57875.59
926.00        57496.59
927.00        57049.73
928.00        56685.64
929.00        56191.29
930.00        55630.42
931.00        54855.71
932.00        53934.51
933.00        53195.16
934.00        52238.96
935.00        51116.75
936.00        49775.58
937.00        48409.87
938.00        47513.77
939.00        46446.95
940.00        45753.51
941.00        45354.89
942.00        44997.78
943.00        44688.27
944.00        44717.78
945.00        44616.11
946.00        44746.62
947.00        45086.73
948.00        45109.51
949.00         45496.3
950.00        45533.13
951.00        45654.89
952.00        46000.04
953.00        46230.61
954.00        46335.41
955.00        46720.79
956.00        46766.51
957.00        46547.64
958.00        46835.85
959.00        46634.92
960.00        46654.48
961.00        46611.18
962.00        46603.18
963.00        46534.36
964.00        46020.44
965.00         45698.2
966.00        45211.34
967.00        44989.55
968.00        44699.31
969.00        44364.12
970.00        44514.66
971.00        44414.18
972.00        44287.12
973.00         44074.6
974.00        43770.15
975.00        43607.71
976.00        43385.11
977.00        43230.95
978.00        42756.27
979.00        42207.74
980.00        41845.45
981.00        41668.55
982.00        41241.98
983.00         40651.5
984.00        40321.09
985.00        40102.04
986.00        39597.96
987.00        39180.65
988.00        38693.09
989.00         37982.5
990.00        37026.45
991.00        35966.97
992.00        34957.15
993.00        34019.04
994.00        32823.08
995.00        31737.64
996.00        30674.52
997.00        29567.28
998.00         28546.4
999.00        27393.22
1000.00        26381.07
1001.00        25374.11
1002.00        24307.01
1003.00        23259.74
1004.00        22238.68
1005.00        21121.62
1006.00        20166.71
1007.00        19170.38
1008.00        18294.84
1009.00        17376.47
1010.00        16311.73
1011.00        15609.94
1012.00        14706.41
1013.00        13735.03
1014.00         12958.1
1015.00        12200.99
1016.00        11333.08
1017.00        10626.39
1018.00        9911.634
1019.00        9264.187
1020.00         8409.99
