SpectraSmart Spectrum 2.6.17.30709
--------- Device Information -----------
Spectrum Name :  Spectrum_0
Saving Time :  2021/11/14 20:39:05
Spectro-Module Model Name : SE1030-VNIR
Spectro-Module Serial Number : OS361AC55010184
Wavelength Start : 350
Wavelength End : 1020
Wavelength Unit : Wavelength(nm)
Spectrum Unit : Intensity(Counts)
-----------Spectrum Setting ------------
Integration Time : 50ms
Average : 1
Boxcar : 0
Background removal :  enabled
linearity correction :  enabled
SC :  disabled
Intensity correction :  disabled
DWT denoise :  enabled
savitzky-golay :  disabled
FFT :  disabled
Running average :  disabled
Kalman :  disabled
High pass :  disabled
---------------BEGIN--------------------
Wavelength(nm)          Intensity(Counts)
350.00        78.18082
351.00        87.43666
352.00         107.604
353.00        91.90401
354.00        104.3487
355.00        121.9158
356.00        95.32191
357.00        92.51933
358.00        105.1407
359.00        96.17686
360.00        109.7991
361.00        132.7626
362.00        135.7285
363.00        121.6703
364.00        111.9167
365.00        131.1508
366.00        130.3038
367.00        118.3545
368.00        129.8064
369.00        126.2672
370.00        117.0256
371.00        127.9571
372.00        127.9343
373.00        122.3403
374.00        129.9652
375.00        119.4518
376.00         103.131
377.00        108.1985
378.00        116.0278
379.00        125.6802
380.00         139.938
381.00        137.1356
382.00        118.4894
383.00        98.53515
384.00        99.16524
385.00         117.686
386.00        139.0896
387.00        127.3315
388.00        112.4628
389.00        138.9308
390.00        143.0502
391.00        133.0306
392.00        138.5652
393.00        153.3315
394.00        158.6739
395.00        140.2719
396.00        130.0599
397.00        136.4118
398.00        153.0139
399.00        150.9253
400.00        146.8967
401.00        164.3265
402.00        145.2213
403.00        128.1178
404.00        154.8772
405.00        149.9115
406.00        138.7563
407.00        155.5748
408.00        144.8288
409.00        139.5662
410.00        164.9276
411.00        163.5223
412.00        145.5754
413.00        133.2762
414.00        136.7695
415.00        140.8857
416.00        133.0612
417.00        132.3832
418.00        137.6587
419.00        145.4492
420.00        149.5491
421.00        153.3802
422.00        157.0612
423.00        142.6214
424.00        144.7882
425.00        169.1183
426.00        167.2055
427.00        157.8667
428.00        156.6022
429.00        172.4904
430.00        175.0722
431.00        163.8552
432.00        180.3431
433.00        185.6583
434.00        177.7373
435.00        186.4851
436.00        189.7477
437.00        185.3506
438.00         183.568
439.00        187.4564
440.00        195.3631
441.00        201.3746
442.00        204.7604
443.00        204.7271
444.00        201.4769
445.00        206.7674
446.00        212.9229
447.00        209.7082
448.00        215.1332
449.00        227.1984
450.00         237.668
451.00        254.1929
452.00        260.8834
453.00        251.3018
454.00        249.5089
455.00        260.6876
456.00        277.4287
457.00        260.4765
458.00        260.6819
459.00        295.1708
460.00        273.8392
461.00        275.5909
462.00        315.2444
463.00        295.6845
464.00         286.907
465.00        304.7899
466.00        303.2577
467.00        320.8796
468.00        343.9273
469.00        328.1654
470.00        337.2906
471.00        356.5945
472.00        341.5968
473.00         359.424
474.00        390.6638
475.00        394.9028
476.00        387.1125
477.00        387.6456
478.00        408.5539
479.00        424.2756
480.00        429.2601
481.00        428.2462
482.00        435.4769
483.00        446.6474
484.00        457.9312
485.00        470.1516
486.00        489.6681
487.00        509.2661
488.00        498.3706
489.00        509.5834
490.00        540.4078
491.00        538.2634
492.00        569.9138
493.00        607.9503
494.00        590.0333
495.00        598.3452
496.00        614.0104
497.00        599.8677
498.00        621.5115
499.00        659.6155
500.00        680.3902
501.00        687.0668
502.00        691.9518
503.00        709.5105
504.00         739.693
505.00        769.8776
506.00        792.4618
507.00        811.2041
508.00        833.5372
509.00        856.6189
510.00        868.8284
511.00        891.8612
512.00        923.9088
513.00        953.9127
514.00        982.8407
515.00        1016.903
516.00        1060.587
517.00        1064.647
518.00        1093.822
519.00        1180.796
520.00        1183.647
521.00        1211.372
522.00        1299.514
523.00        1310.622
524.00        1356.617
525.00        1450.419
526.00        1516.998
527.00        1558.295
528.00          1591.3
529.00        1637.515
530.00        1715.412
531.00        1779.396
532.00        1798.432
533.00        1909.681
534.00        1997.234
535.00        1993.688
536.00        2064.569
537.00        2173.019
538.00        2270.304
539.00        2311.985
540.00         2386.07
541.00        2497.549
542.00        2592.113
543.00        2638.468
544.00        2696.822
545.00        2827.271
546.00        2937.536
547.00        3006.867
548.00        3052.195
549.00        3121.154
550.00        3213.884
551.00        3319.061
552.00         3427.11
553.00        3525.193
554.00        3611.852
555.00        3696.812
556.00        3787.056
557.00        3895.835
558.00        4023.275
559.00        4108.412
560.00        4196.849
561.00        4322.388
562.00        4429.587
563.00        4501.032
564.00        4554.724
565.00        4650.827
566.00        4751.068
567.00        4857.383
568.00        4990.238
569.00        5068.767
570.00        5139.437
571.00        5255.681
572.00        5331.031
573.00        5411.695
574.00         5526.29
575.00        5635.589
576.00        5730.887
577.00        5802.759
578.00        5859.742
579.00        5903.377
580.00         5990.84
581.00        6149.025
582.00        6218.545
583.00         6273.92
584.00         6380.29
585.00        6448.827
586.00        6517.234
587.00        6609.074
588.00        6731.107
589.00        6808.458
590.00        6863.895
591.00         6947.27
592.00          7072.7
593.00        7136.861
594.00        7116.818
595.00        7220.711
596.00        7361.768
597.00         7458.03
598.00        7473.133
599.00        7539.784
600.00        7629.014
601.00        7649.948
602.00        7678.044
603.00        7684.336
604.00        7704.855
605.00        7928.996
606.00        8099.805
607.00        8150.191
608.00        8202.593
609.00        8368.925
610.00        8523.828
611.00        8537.526
612.00        8674.176
613.00        8823.296
614.00        8909.648
615.00        9004.273
616.00        9159.159
617.00        9315.064
618.00        9377.395
619.00         9485.42
620.00        9668.906
621.00        9889.498
622.00        10066.49
623.00        10206.01
624.00        10331.61
625.00        10460.08
626.00        10644.76
627.00        10853.99
628.00        11035.78
629.00        11145.67
630.00        11311.72
631.00        11563.13
632.00        11672.02
633.00        11910.86
634.00        12194.25
635.00        12299.33
636.00        12564.11
637.00        12839.34
638.00        12984.52
639.00        13180.69
640.00        13421.36
641.00        13675.28
642.00        13895.07
643.00        14099.78
644.00        14321.95
645.00        14581.26
646.00        14870.01
647.00        15130.91
648.00        15366.95
649.00        15656.23
650.00        15887.44
651.00         16147.6
652.00        16500.39
653.00        16665.08
654.00         16889.4
655.00         17258.2
656.00        17576.31
657.00        17854.36
658.00         18123.1
659.00        18422.01
660.00        18664.94
661.00         19008.7
662.00        19380.36
663.00        19626.29
664.00        19993.91
665.00        20398.96
666.00        20680.78
667.00        21059.36
668.00        21376.99
669.00        21630.74
670.00        22053.96
671.00        22367.11
672.00         22682.3
673.00        23085.51
674.00        23475.04
675.00        23857.97
676.00        24249.37
677.00        24645.45
678.00        24955.98
679.00        25281.48
680.00        25707.28
681.00        26153.94
682.00        26620.86
683.00        27046.16
684.00        27383.11
685.00        27812.84
686.00        28266.53
687.00        28662.44
688.00        29274.31
689.00        29543.57
690.00        29918.05
691.00        30399.73
692.00        30796.14
693.00        31106.88
694.00         31452.4
695.00        31992.05
696.00        32541.99
697.00        33006.16
698.00        33394.41
699.00        33731.64
700.00        34086.51
701.00        34553.62
702.00         35032.8
703.00        35401.43
704.00        35761.42
705.00        36192.71
706.00        36667.56
707.00        36926.45
708.00        37161.54
709.00         37704.9
710.00        38113.52
711.00        38403.79
712.00        38645.98
713.00        38859.17
714.00        39141.41
715.00           39512
716.00        39876.68
717.00        39940.09
718.00        40097.82
719.00        40370.26
720.00        40477.85
721.00        40620.43
722.00        40684.05
723.00        40867.67
724.00        41302.23
725.00        41510.82
726.00        41743.02
727.00        42261.12
728.00         42225.7
729.00        42440.42
730.00        42834.46
731.00        42947.96
732.00        42976.41
733.00         43237.8
734.00        43717.82
735.00        44077.05
736.00        44265.19
737.00        44353.54
738.00        44468.87
739.00        44714.85
740.00        45159.75
741.00        45550.28
742.00        45525.24
743.00        45747.23
744.00        45860.41
745.00        45951.79
746.00        46200.46
747.00        46281.98
748.00        46368.91
749.00        46523.44
750.00        46586.54
751.00        46801.09
752.00         46954.8
753.00        46969.77
754.00        47131.86
755.00        47143.16
756.00         47174.8
757.00        47293.71
758.00        47502.51
759.00        47565.73
760.00        47469.82
761.00        47365.77
762.00        47315.41
763.00        47397.48
764.00        47516.07
765.00        47526.93
766.00        47481.38
767.00        47466.58
768.00        47541.43
769.00        47398.64
770.00        47394.95
771.00        47404.29
772.00        47364.33
773.00        47337.54
774.00         47287.6
775.00        47326.84
776.00        47408.57
777.00        47239.91
778.00        46963.88
779.00        47127.75
780.00        47135.92
781.00         46893.2
782.00        46982.17
783.00        47082.95
784.00        46840.82
785.00        46779.86
786.00        46750.81
787.00        46758.18
788.00         46845.9
789.00        46631.34
790.00        46599.66
791.00        46616.12
792.00        46446.15
793.00        46287.43
794.00        46247.32
795.00        46269.86
796.00         46230.3
797.00        46224.37
798.00        46141.19
799.00        46025.58
800.00        46229.06
801.00        46186.52
802.00        46104.95
803.00        45940.45
804.00        45683.62
805.00        45614.86
806.00        45781.46
807.00        45738.82
808.00        45330.52
809.00        45461.06
810.00        45515.53
811.00        45387.96
812.00        45262.71
813.00        45267.13
814.00        45226.27
815.00        45221.32
816.00        45147.49
817.00        45253.29
818.00        45047.48
819.00        45093.75
820.00        45173.07
821.00         44918.3
822.00        44740.29
823.00        44867.06
824.00        45040.51
825.00         44889.4
826.00        44740.14
827.00        44771.91
828.00        44864.87
829.00        44742.13
830.00        44664.51
831.00        44669.04
832.00         44701.6
833.00        44638.29
834.00        44801.67
835.00         44919.3
836.00        44768.62
837.00        44785.92
838.00        44886.82
839.00        45113.29
840.00        45186.33
841.00        44987.97
842.00           44991
843.00        45225.92
844.00        45293.66
845.00        45116.96
846.00        45189.99
847.00        45296.82
848.00        45357.75
849.00        45314.84
850.00        45464.94
851.00        45519.58
852.00        45560.78
853.00        45541.95
854.00        45431.74
855.00        45531.89
856.00        45826.18
857.00        45923.47
858.00        45738.14
859.00        45701.09
860.00        46037.89
861.00        46191.08
862.00        46143.12
863.00        46252.25
864.00        46219.61
865.00        46389.54
866.00        46467.34
867.00        46165.34
868.00        46463.49
869.00        46437.56
870.00        46571.64
871.00        46531.05
872.00        46304.63
873.00        46350.44
874.00        46289.04
875.00        46148.76
876.00        46226.76
877.00        46170.97
878.00        46007.32
879.00        46261.99
880.00        46378.21
881.00        46353.55
882.00           46587
883.00        46728.87
884.00         46726.6
885.00        46842.63
886.00        47005.14
887.00        47060.84
888.00        47109.95
889.00        47216.87
890.00        47213.46
891.00        47417.55
892.00        47504.49
893.00        47561.93
894.00        47757.23
895.00        47801.28
896.00        47569.95
897.00        47576.61
898.00        47765.84
899.00        47535.66
900.00        47546.85
901.00        47521.39
902.00        47537.77
903.00        47535.54
904.00        47386.49
905.00        47492.75
906.00        47143.36
907.00        46744.46
908.00        46995.29
909.00           46860
910.00        46779.61
911.00        46578.41
912.00        46209.82
913.00        46319.86
914.00        46124.55
915.00        45815.85
916.00        45628.73
917.00         45530.5
918.00        45150.78
919.00        44947.07
920.00        44724.53
921.00        44408.06
922.00        44058.94
923.00        43714.55
924.00        43349.96
925.00        42983.41
926.00        42507.12
927.00        41829.72
928.00        41582.43
929.00         41087.5
930.00        40317.45
931.00        39525.76
932.00        38753.38
933.00        37651.59
934.00         36160.5
935.00        34178.08
936.00        32099.36
937.00        30138.38
938.00        28193.36
939.00        26570.18
940.00        25262.99
941.00        24213.36
942.00         23519.7
943.00        23352.61
944.00         23357.2
945.00        23525.91
946.00        23930.59
947.00        24430.03
948.00        24823.71
949.00        25593.82
950.00         26176.4
951.00        26763.52
952.00        27450.41
953.00        28043.88
954.00        28567.45
955.00        29378.59
956.00        29739.52
957.00        30036.64
958.00        30751.41
959.00        30984.93
960.00        31366.21
961.00        31671.14
962.00        31923.21
963.00        32137.33
964.00        32252.97
965.00        31963.43
966.00        31959.02
967.00        31940.75
968.00         31899.2
969.00        32115.72
970.00        32339.59
971.00        32382.43
972.00        32353.45
973.00        32252.81
974.00        32188.17
975.00        32309.36
976.00        32390.55
977.00         32040.2
978.00        31857.16
979.00        31767.49
980.00        31435.68
981.00        31257.71
982.00         30969.1
983.00        30764.59
984.00        30553.08
985.00        30345.54
986.00        30132.42
987.00        29703.44
988.00         29533.3
989.00        29060.62
990.00        28415.45
991.00        27803.21
992.00        27159.18
993.00        26548.04
994.00        25886.96
995.00        24987.05
996.00        24161.94
997.00        23455.92
998.00        22564.32
999.00        21689.08
1000.00        20994.14
1001.00        20218.61
1002.00        19335.05
1003.00        18459.59
1004.00        17682.83
1005.00        16964.42
1006.00        16064.52
1007.00        15252.84
1008.00        14440.86
1009.00        13721.29
1010.00        13118.78
1011.00           12200
1012.00        11529.84
1013.00        10804.61
1014.00        10145.54
1015.00        9507.973
1016.00        8853.813
1017.00        8304.983
1018.00        7598.269
1019.00         7215.68
1020.00        6563.305
