SpectraSmart Spectrum 2.6.17.30709
--------- Device Information -----------
Spectrum Name :  Spectrum_0
Saving Time :  2021/11/14 21:09:14
Spectro-Module Model Name : SE1030-VNIR
Spectro-Module Serial Number : OS361AC55010184
Wavelength Start : 350
Wavelength End : 1020
Wavelength Unit : Wavelength(nm)
Spectrum Unit : Intensity(Counts)
-----------Spectrum Setting ------------
Integration Time : 50ms
Average : 1
Boxcar : 0
Background removal :  enabled
linearity correction :  enabled
SC :  disabled
Intensity correction :  disabled
DWT denoise :  enabled
savitzky-golay :  disabled
FFT :  disabled
Running average :  disabled
Kalman :  disabled
High pass :  disabled
---------------BEGIN--------------------
Wavelength(nm)          Intensity(Counts)
350.00        80.60593
351.00        84.16997
352.00        75.94369
353.00        81.42345
354.00        87.45402
355.00        90.38337
356.00        87.81338
357.00         93.7785
358.00        98.40641
359.00        82.21656
360.00        98.51283
361.00        121.0007
362.00         94.5277
363.00        95.93932
364.00        107.1395
365.00         74.0164
366.00        87.08319
367.00         119.158
368.00        101.9136
369.00        95.76917
370.00        103.1236
371.00         102.795
372.00        101.1064
373.00        99.45045
374.00        99.86823
375.00        103.9626
376.00        108.7863
377.00        109.4166
378.00        111.1838
379.00        110.4259
380.00        100.5286
381.00        108.4227
382.00        120.2576
383.00        109.9231
384.00        117.2827
385.00        129.5128
386.00         120.105
387.00        105.6751
388.00        101.6879
389.00         117.911
390.00        119.4242
391.00        115.6865
392.00        129.4718
393.00         121.604
394.00        109.7838
395.00        121.0464
396.00        128.7056
397.00         127.751
398.00        120.9097
399.00        130.7843
400.00        133.4547
401.00         105.783
402.00        108.1165
403.00        122.3119
404.00          115.76
405.00        117.2787
406.00        118.5579
407.00        112.1178
408.00        126.6023
409.00        138.9569
410.00        128.4198
411.00        123.9826
412.00        124.1674
413.00        124.8202
414.00        126.0042
415.00        132.6379
416.00        142.1118
417.00        132.1907
418.00        118.2642
419.00        116.8877
420.00        139.8461
421.00        142.3676
422.00        112.0955
423.00        125.8177
424.00        138.0733
425.00        127.1898
426.00        136.2533
427.00        136.7209
428.00        126.8456
429.00        144.9035
430.00        150.4976
431.00        136.1474
432.00        140.6463
433.00        131.2012
434.00        119.1066
435.00        157.6039
436.00        151.5707
437.00        120.7377
438.00        161.2804
439.00        163.6016
440.00         137.602
441.00        151.1139
442.00        149.9532
443.00        141.4037
444.00        151.1241
445.00        158.4586
446.00        165.0985
447.00        176.4983
448.00        158.7667
449.00        146.9709
450.00        174.2726
451.00         186.809
452.00        185.1694
453.00        182.3945
454.00        176.3686
455.00          176.11
456.00        184.4766
457.00        186.1397
458.00        193.8441
459.00         210.046
460.00        203.5964
461.00        207.3487
462.00        225.6926
463.00        210.7043
464.00        211.6943
465.00        231.6489
466.00        225.2187
467.00        217.3089
468.00         216.448
469.00        215.6635
470.00        236.6743
471.00        252.4297
472.00        225.9654
473.00        234.5355
474.00        259.1698
475.00        254.0411
476.00        268.8605
477.00        282.9164
478.00        272.6205
479.00        281.6902
480.00        286.0449
481.00        271.8618
482.00        295.5439
483.00        312.9941
484.00        301.9081
485.00        309.0839
486.00        319.6382
487.00        325.2347
488.00        331.8056
489.00        336.1546
490.00        349.1812
491.00        391.7077
492.00        387.0771
493.00        360.4018
494.00        382.1571
495.00        389.7052
496.00        396.1626
497.00         427.256
498.00        421.6385
499.00        416.0913
500.00        446.2207
501.00        452.2197
502.00         457.055
503.00        477.9736
504.00        487.4778
505.00        503.5598
506.00        528.8323
507.00         542.825
508.00        548.0184
509.00        548.3039
510.00        544.6277
511.00        579.0236
512.00        620.2663
513.00        615.2897
514.00        640.4634
515.00        670.8084
516.00        668.2679
517.00        708.1332
518.00        744.9056
519.00        743.4715
520.00        778.8231
521.00        804.6691
522.00        811.9681
523.00        872.6391
524.00        914.3244
525.00        927.1652
526.00        961.8355
527.00        991.9298
528.00        1023.337
529.00        1071.287
530.00        1088.954
531.00        1115.829
532.00        1187.923
533.00        1236.084
534.00        1260.653
535.00        1283.846
536.00        1330.716
537.00        1396.563
538.00        1463.752
539.00          1504.8
540.00        1570.277
541.00        1643.903
542.00        1667.571
543.00        1718.871
544.00        1774.613
545.00        1796.032
546.00        1882.424
547.00        1970.161
548.00        2003.794
549.00        2070.446
550.00        2127.969
551.00        2167.983
552.00        2241.195
553.00        2308.014
554.00         2357.77
555.00        2404.837
556.00         2456.83
557.00        2529.607
558.00         2625.94
559.00         2706.63
560.00        2776.251
561.00        2842.152
562.00        2862.527
563.00        2925.067
564.00        3030.031
565.00         3065.74
566.00        3124.171
567.00        3230.021
568.00        3353.177
569.00         3413.81
570.00        3433.363
571.00        3474.592
572.00        3577.157
573.00        3655.224
574.00        3673.587
575.00        3743.305
576.00        3809.115
577.00        3850.589
578.00        3881.994
579.00         3946.44
580.00        4035.328
581.00        4114.344
582.00        4143.171
583.00        4194.851
584.00        4305.658
585.00        4404.642
586.00        4402.172
587.00        4366.877
588.00        4492.739
589.00        4591.689
590.00        4633.087
591.00        4669.437
592.00        4706.828
593.00         4773.01
594.00        4869.875
595.00         4941.38
596.00        5034.941
597.00         5122.29
598.00        5106.845
599.00        5150.621
600.00        5222.863
601.00         5237.61
602.00        5223.483
603.00         5263.68
604.00        5375.792
605.00        5419.243
606.00        5440.492
607.00        5500.963
608.00        5645.462
609.00         5734.66
610.00        5798.307
611.00         5909.28
612.00        5967.561
613.00        6051.911
614.00        6175.794
615.00        6222.532
616.00        6269.627
617.00        6370.151
618.00        6533.816
619.00        6615.095
620.00        6679.744
621.00        6814.492
622.00        6910.077
623.00        7062.744
624.00        7252.755
625.00        7346.025
626.00         7453.13
627.00        7577.508
628.00        7687.364
629.00        7834.587
630.00        7968.445
631.00        8082.114
632.00        8281.029
633.00         8397.44
634.00        8476.496
635.00        8658.136
636.00        8850.575
637.00        9032.431
638.00        9191.111
639.00        9255.016
640.00        9457.776
641.00          9725.6
642.00        9780.083
643.00        9929.155
644.00        10143.17
645.00        10320.31
646.00        10490.37
647.00         10704.9
648.00        10935.83
649.00        11084.96
650.00        11246.19
651.00        11467.32
652.00        11729.85
653.00        11807.99
654.00        12031.51
655.00         12418.4
656.00        12548.46
657.00        12741.21
658.00        12985.35
659.00        13177.03
660.00         13429.2
661.00        13644.14
662.00        13828.64
663.00        14146.77
664.00        14342.82
665.00        14532.77
666.00        14877.37
667.00        15034.36
668.00        15285.19
669.00        15666.95
670.00        15855.31
671.00        16138.82
672.00        16459.57
673.00        16676.89
674.00        16959.13
675.00        17232.52
676.00        17499.11
677.00        17838.65
678.00        18154.02
679.00        18419.32
680.00        18672.27
681.00        19076.53
682.00        19388.62
683.00        19636.04
684.00        20076.39
685.00        20340.72
686.00        20556.95
687.00        20894.32
688.00        21188.59
689.00        21521.76
690.00        21855.55
691.00        22381.27
692.00        22578.23
693.00        22846.79
694.00        23308.72
695.00        23667.08
696.00        23958.63
697.00        24211.79
698.00        24477.59
699.00        24854.76
700.00        25193.08
701.00        25489.96
702.00        25924.52
703.00        26196.35
704.00        26420.76
705.00         26758.3
706.00        27121.92
707.00        27387.66
708.00        27616.96
709.00        27959.36
710.00        28337.74
711.00        28643.57
712.00        28856.06
713.00        29073.34
714.00        29333.99
715.00        29529.89
716.00        29617.51
717.00        29920.43
718.00        30149.96
719.00         30267.7
720.00        30454.16
721.00        30523.43
722.00        30558.25
723.00        30702.98
724.00        31037.99
725.00        31308.39
726.00        31567.78
727.00        31903.31
728.00        31873.24
729.00        32114.94
730.00        32485.82
731.00        32438.46
732.00        32567.79
733.00        32856.86
734.00        33202.29
735.00        33533.54
736.00        33526.69
737.00         33544.1
738.00        33865.44
739.00        34114.27
740.00        34346.26
741.00        34486.27
742.00        34558.38
743.00        34766.31
744.00        34888.63
745.00        34943.91
746.00         35122.8
747.00        35328.93
748.00         35331.8
749.00        35221.79
750.00        35555.52
751.00        35725.56
752.00         35817.8
753.00        35882.71
754.00        35936.53
755.00        36189.88
756.00        36311.93
757.00        36112.21
758.00         36285.5
759.00        36374.82
760.00        36363.28
761.00        36373.12
762.00        36425.81
763.00        36501.18
764.00        36561.87
765.00        36598.37
766.00        36644.85
767.00        36706.05
768.00        36722.41
769.00        36593.46
770.00        36597.84
771.00        36731.78
772.00        36832.17
773.00        36601.48
774.00         36570.5
775.00        36606.13
776.00        36572.32
777.00        36533.98
778.00        36632.97
779.00        36631.39
780.00        36481.69
781.00        36460.76
782.00        36619.73
783.00        36715.81
784.00        36476.67
785.00         36400.8
786.00        36284.86
787.00        36421.11
788.00        36512.66
789.00        36551.03
790.00        36505.69
791.00        36429.34
792.00        36387.76
793.00        36318.63
794.00        36319.38
795.00         36315.8
796.00        36251.35
797.00        36081.21
798.00        36001.76
799.00        35955.33
800.00        36185.92
801.00        36189.69
802.00        36058.25
803.00        35925.64
804.00        35883.48
805.00        35942.53
806.00        35944.77
807.00        35797.75
808.00        35764.07
809.00        35984.46
810.00        35902.57
811.00        35740.48
812.00        35864.26
813.00        35741.14
814.00        35786.74
815.00        35894.41
816.00        35935.94
817.00        35831.51
818.00        35726.19
819.00        35677.96
820.00        35712.38
821.00        35701.42
822.00        35685.18
823.00        35755.13
824.00        35800.75
825.00         35578.8
826.00        35569.43
827.00        35801.05
828.00        35827.01
829.00         35693.8
830.00        35706.69
831.00         35695.7
832.00        35652.99
833.00        35705.82
834.00        35880.27
835.00        35949.44
836.00        35887.93
837.00        35946.53
838.00        35857.48
839.00        36298.46
840.00        36157.14
841.00        36061.63
842.00        36163.48
843.00        36212.64
844.00        36207.75
845.00        36248.29
846.00        36360.35
847.00        36456.74
848.00        36450.63
849.00        36486.84
850.00         36601.5
851.00        36693.62
852.00        36719.04
853.00        36695.38
854.00         36780.9
855.00        36865.57
856.00        36997.96
857.00        37059.05
858.00           36928
859.00        37006.25
860.00        37096.61
861.00        37431.16
862.00        37542.57
863.00        37414.22
864.00        37383.29
865.00        37662.72
866.00        37894.58
867.00        37732.16
868.00         38005.2
869.00         37716.9
870.00        37559.22
871.00        37742.13
872.00        37605.83
873.00        37597.12
874.00        37647.48
875.00         37638.7
876.00         37709.9
877.00        37731.17
878.00        37769.36
879.00        37772.89
880.00        37759.38
881.00        38108.16
882.00        38142.82
883.00        38059.97
884.00        38137.31
885.00        38328.47
886.00        38544.36
887.00        38438.99
888.00        38406.84
889.00        38681.71
890.00        38844.13
891.00         38977.2
892.00        38980.25
893.00        39013.98
894.00        39198.88
895.00        39123.07
896.00        39236.82
897.00        39252.53
898.00        39052.47
899.00        39051.13
900.00        39160.55
901.00        39142.07
902.00        38974.01
903.00        38979.34
904.00        38981.25
905.00        39095.34
906.00         38915.3
907.00        38712.59
908.00        39014.95
909.00        38852.73
910.00        38698.68
911.00        38458.06
912.00        38326.43
913.00        38419.51
914.00        38379.66
915.00        37941.04
916.00        37661.85
917.00        37673.86
918.00        37453.46
919.00        37297.68
920.00        37096.21
921.00        36854.83
922.00        36673.99
923.00        36442.07
924.00        35945.68
925.00        35629.98
926.00        35285.88
927.00        34847.81
928.00        34383.68
929.00        34002.01
930.00        33519.58
931.00        32954.41
932.00        32295.58
933.00        31344.12
934.00        29991.96
935.00        28456.02
936.00        26861.82
937.00         25220.8
938.00        23475.79
939.00        22252.92
940.00        21000.18
941.00        20180.69
942.00        19827.11
943.00        19444.74
944.00        19512.87
945.00        19647.04
946.00        19940.91
947.00        20433.02
948.00        20775.25
949.00        21370.67
950.00        21770.24
951.00        22355.55
952.00        23058.75
953.00        23456.35
954.00        23935.42
955.00        24499.23
956.00        24897.38
957.00        25231.02
958.00        25680.52
959.00        26022.99
960.00        26296.28
961.00        26535.44
962.00        26791.91
963.00        27024.46
964.00        27130.99
965.00        26993.69
966.00        27016.22
967.00        26935.07
968.00        26857.82
969.00        27031.23
970.00        27013.14
971.00        27023.55
972.00        27010.54
973.00        27031.38
974.00        27097.58
975.00        27120.14
976.00        27104.27
977.00        26998.52
978.00        26923.32
979.00        26754.96
980.00        26465.85
981.00        26413.62
982.00        26087.82
983.00         25973.6
984.00        25835.15
985.00        25554.67
986.00        25333.79
987.00        25230.87
988.00        24776.32
989.00        24442.07
990.00        24103.92
991.00        23397.04
992.00        22632.97
993.00        22190.02
994.00        21543.08
995.00         20835.6
996.00        20222.65
997.00        19575.44
998.00        18751.64
999.00        18192.03
1000.00        17434.58
1001.00        16885.87
1002.00        16184.14
1003.00        15359.65
1004.00        14810.91
1005.00        14053.75
1006.00        13372.96
1007.00        12813.41
1008.00        12195.78
1009.00        11496.74
1010.00        10853.81
1011.00        10255.45
1012.00        9596.127
1013.00        9085.947
1014.00        8603.071
1015.00        8061.306
1016.00        7496.217
1017.00        6967.421
1018.00        6533.735
1019.00          6096.4
1020.00        5548.194
