SpectraSmart Spectrum 2.6.17.30709
--------- Device Information -----------
Spectrum Name :  Spectrum_0
Saving Time :  2021/11/14 21:00:16
Spectro-Module Model Name : SE1030-VNIR
Spectro-Module Serial Number : OS361AC55010184
Wavelength Start : 350
Wavelength End : 1020
Wavelength Unit : Wavelength(nm)
Spectrum Unit : Intensity(Counts)
-----------Spectrum Setting ------------
Integration Time : 50ms
Average : 1
Boxcar : 0
Background removal :  enabled
linearity correction :  enabled
SC :  disabled
Intensity correction :  disabled
DWT denoise :  enabled
savitzky-golay :  disabled
FFT :  disabled
Running average :  disabled
Kalman :  disabled
High pass :  disabled
---------------BEGIN--------------------
Wavelength(nm)          Intensity(Counts)
350.00        56.58329
351.00        57.88679
352.00        62.45043
353.00        64.13504
354.00         71.1943
355.00        77.53396
356.00        75.31281
357.00         65.5873
358.00        58.99531
359.00        68.41003
360.00        63.78646
361.00        58.72449
362.00        81.04023
363.00        80.48767
364.00        65.02145
365.00        63.93034
366.00        80.15849
367.00        92.19688
368.00         71.8289
369.00        67.98241
370.00        74.84102
371.00        63.30011
372.00        63.52939
373.00        72.98106
374.00        78.26084
375.00        79.20615
376.00        81.78135
377.00        93.90725
378.00        92.43106
379.00        84.23341
380.00        86.34393
381.00         87.2504
382.00        83.25077
383.00        73.74567
384.00        81.74332
385.00        91.99247
386.00        79.27615
387.00        81.63016
388.00        91.78525
389.00         87.8509
390.00         84.1144
391.00        82.30451
392.00        80.54665
393.00        95.89372
394.00        107.4624
395.00        92.68519
396.00        80.65276
397.00        80.20442
398.00        87.78939
399.00        88.42507
400.00        83.88114
401.00        83.38141
402.00        84.92153
403.00        89.21357
404.00        93.98312
405.00        92.73879
406.00         86.4533
407.00          81.514
408.00        85.94429
409.00          97.882
410.00        108.6646
411.00        107.5625
412.00         99.1096
413.00        92.71302
414.00        92.15501
415.00        94.05249
416.00        92.02786
417.00        91.20546
418.00        81.57484
419.00        67.45158
420.00        96.35671
421.00        112.6641
422.00        88.73969
423.00        91.33397
424.00         87.7317
425.00        69.22534
426.00        79.84917
427.00        88.23626
428.00        86.13147
429.00         108.263
430.00        107.0862
431.00         83.2066
432.00        95.54633
433.00        93.98129
434.00        77.52899
435.00        89.10949
436.00        94.37496
437.00        92.74285
438.00        106.7459
439.00        99.72849
440.00        86.43923
441.00        102.5258
442.00         104.336
443.00        96.45521
444.00         101.425
445.00        102.3013
446.00        103.1024
447.00        110.7153
448.00        111.2477
449.00         111.742
450.00        119.5703
451.00        119.5955
452.00        114.8976
453.00        112.2359
454.00        117.3391
455.00        118.5733
456.00        110.5713
457.00        113.9598
458.00        122.4911
459.00        128.3637
460.00        129.4936
461.00        125.4495
462.00         119.323
463.00        110.3979
464.00        120.2019
465.00        140.0702
466.00        125.7277
467.00        133.4461
468.00        149.3241
469.00         113.031
470.00        114.7678
471.00        140.6463
472.00        131.8934
473.00        135.8381
474.00        140.8033
475.00        125.7185
476.00        136.3835
477.00        147.7021
478.00        132.3213
479.00        136.8278
480.00        146.7779
481.00         147.105
482.00        164.1077
483.00        168.6282
484.00         151.208
485.00        154.5438
486.00        158.5457
487.00        159.1116
488.00        185.8465
489.00        179.8304
490.00        156.6911
491.00        188.6849
492.00        196.1146
493.00        183.8673
494.00        196.6867
495.00        201.3786
496.00         203.518
497.00        215.1862
498.00         213.816
499.00        214.8957
500.00        231.0766
501.00        227.3968
502.00        226.1281
503.00        238.6967
504.00        221.5678
505.00        220.8174
506.00         244.749
507.00        237.2186
508.00        242.3975
509.00        263.4586
510.00        271.6474
511.00        276.8257
512.00        281.5007
513.00        287.4857
514.00        283.0365
515.00        285.8976
516.00        311.1101
517.00        324.5471
518.00        333.3959
519.00        347.8083
520.00        353.9399
521.00        365.6957
522.00        384.7269
523.00        394.2789
524.00        395.9803
525.00        401.8354
526.00        428.1999
527.00        448.2652
528.00         455.218
529.00          458.32
530.00        479.4954
531.00        508.9134
532.00        527.3499
533.00        528.7828
534.00         539.821
535.00        575.1375
536.00        589.9276
537.00        614.3499
538.00        648.1046
539.00        645.0703
540.00        658.3002
541.00        693.5917
542.00        721.6945
543.00        751.5872
544.00        771.4086
545.00        774.3934
546.00        814.6429
547.00        845.5889
548.00        835.3572
549.00        879.3453
550.00        903.6503
551.00        895.1189
552.00        953.3325
553.00        991.8926
554.00        1000.874
555.00        1024.033
556.00         1053.73
557.00        1089.268
558.00        1127.169
559.00        1143.785
560.00        1176.028
561.00        1236.807
562.00        1249.624
563.00        1253.424
564.00        1278.119
565.00        1320.628
566.00        1366.908
567.00        1401.559
568.00         1415.31
569.00        1473.627
570.00        1509.304
571.00        1470.372
572.00        1524.766
573.00        1575.187
574.00        1572.164
575.00        1644.598
576.00        1673.656
577.00        1656.767
578.00        1677.783
579.00         1721.81
580.00        1763.465
581.00        1781.902
582.00        1815.748
583.00         1848.95
584.00        1863.242
585.00        1872.337
586.00         1882.85
587.00        1914.705
588.00        1988.048
589.00        2012.347
590.00        1997.097
591.00        1996.199
592.00        2051.615
593.00        2091.085
594.00        2074.524
595.00        2115.721
596.00        2172.627
597.00        2214.142
598.00        2227.375
599.00        2253.477
600.00        2261.465
601.00        2221.002
602.00        2251.524
603.00        2310.493
604.00        2347.331
605.00        2404.625
606.00        2418.178
607.00        2416.061
608.00        2477.267
609.00        2547.058
610.00        2571.536
611.00        2548.984
612.00        2609.907
613.00         2706.16
614.00        2772.393
615.00        2803.142
616.00        2820.017
617.00        2868.078
618.00        2967.655
619.00        3002.331
620.00        3000.729
621.00        3031.386
622.00        3118.611
623.00        3178.699
624.00        3200.647
625.00        3266.924
626.00        3357.684
627.00         3440.77
628.00        3491.202
629.00         3549.51
630.00        3604.714
631.00        3659.981
632.00        3770.866
633.00        3812.143
634.00        3828.354
635.00        3929.749
636.00        4031.881
637.00        4101.341
638.00        4150.952
639.00        4289.947
640.00        4362.396
641.00         4369.01
642.00        4439.181
643.00        4551.825
644.00        4657.712
645.00        4724.543
646.00        4856.506
647.00        4935.218
648.00        4972.502
649.00        5120.338
650.00        5205.147
651.00        5277.243
652.00        5416.415
653.00        5509.548
654.00        5592.096
655.00        5696.461
656.00        5828.432
657.00        5943.349
658.00        6045.574
659.00         6157.97
660.00        6245.407
661.00        6355.555
662.00        6483.707
663.00        6554.831
664.00        6666.001
665.00        6809.517
666.00        6944.972
667.00        7110.407
668.00        7253.295
669.00        7353.035
670.00        7438.866
671.00        7576.605
672.00        7734.421
673.00        7857.435
674.00        7982.075
675.00        8123.266
676.00        8294.752
677.00        8498.909
678.00        8631.462
679.00        8740.601
680.00        8908.549
681.00        9091.101
682.00        9291.981
683.00        9462.528
684.00        9546.705
685.00        9706.897
686.00        9898.341
687.00         10052.3
688.00        10249.69
689.00        10395.56
690.00         10508.2
691.00        10667.65
692.00        10859.97
693.00        11061.73
694.00        11245.21
695.00        11400.38
696.00        11573.84
697.00        11766.54
698.00         11947.4
699.00        12071.76
700.00        12216.88
701.00        12420.05
702.00        12644.05
703.00        12802.16
704.00        12943.91
705.00        13126.52
706.00        13253.55
707.00        13372.54
708.00        13513.89
709.00        13704.62
710.00        13831.77
711.00        13991.48
712.00        14201.76
713.00        14334.78
714.00        14417.59
715.00        14532.14
716.00        14629.07
717.00        14719.47
718.00        14836.51
719.00        14961.33
720.00        15048.34
721.00        15096.53
722.00        15145.06
723.00        15218.22
724.00        15308.23
725.00        15396.32
726.00        15542.72
727.00        15755.93
728.00        15836.88
729.00        15956.59
730.00        16131.43
731.00        16270.51
732.00        16340.21
733.00        16441.06
734.00         16558.1
735.00        16538.56
736.00        16651.61
737.00        16814.87
738.00        16934.97
739.00         17103.9
740.00        17312.42
741.00        17405.89
742.00        17335.16
743.00        17598.79
744.00        17741.92
745.00        17737.22
746.00        17892.11
747.00        17961.34
748.00        17985.98
749.00        18048.14
750.00        18085.59
751.00        18195.78
752.00        18260.24
753.00        18250.33
754.00        18290.16
755.00        18459.53
756.00        18548.63
757.00        18541.79
758.00        18655.03
759.00        18747.53
760.00        18729.41
761.00        18587.25
762.00        18681.91
763.00        18798.44
764.00         18833.2
765.00         18847.5
766.00        18900.17
767.00        18909.16
768.00        18911.19
769.00        19042.48
770.00        18979.86
771.00        18945.92
772.00        19038.89
773.00        19018.51
774.00        19013.79
775.00        19004.92
776.00        18989.51
777.00         19020.4
778.00        19041.35
779.00        19027.82
780.00        19015.87
781.00        19075.72
782.00        19110.83
783.00        19138.72
784.00        19073.95
785.00        19087.62
786.00         19100.8
787.00        19083.65
788.00        19018.48
789.00        19220.04
790.00        19082.73
791.00        19050.14
792.00        19120.11
793.00        19111.51
794.00        19171.74
795.00        19203.56
796.00        19124.62
797.00         19013.4
798.00        19081.26
799.00         19212.4
800.00         19202.8
801.00        19131.32
802.00        19149.87
803.00        19195.26
804.00        19209.15
805.00         19200.5
806.00        19191.85
807.00        19213.66
808.00        19219.86
809.00        19238.44
810.00        19252.81
811.00        19249.54
812.00         19229.1
813.00        19221.68
814.00        19152.14
815.00        19128.37
816.00        19219.54
817.00        19267.85
818.00        19294.87
819.00        19267.49
820.00        19239.21
821.00        19285.06
822.00        19240.53
823.00        19211.01
824.00        19311.91
825.00         19511.3
826.00        19366.48
827.00        19265.41
828.00        19357.68
829.00        19276.63
830.00        19350.83
831.00        19431.61
832.00        19433.82
833.00        19416.83
834.00        19491.82
835.00        19545.45
836.00        19595.11
837.00        19589.41
838.00        19680.97
839.00        19684.86
840.00        19585.66
841.00         19618.7
842.00        19637.68
843.00        19780.74
844.00        19857.85
845.00        19803.78
846.00        19982.75
847.00        19996.36
848.00        19992.54
849.00         20058.2
850.00        20208.48
851.00         20223.2
852.00         20269.5
853.00        20365.33
854.00        20412.64
855.00        20444.75
856.00        20508.23
857.00        20489.73
858.00        20413.92
859.00        20707.17
860.00        20797.03
861.00        20803.98
862.00        20822.02
863.00        20725.61
864.00        20803.31
865.00         20860.2
866.00        20920.68
867.00        21157.75
868.00        21022.94
869.00        20969.04
870.00        21023.81
871.00        21053.41
872.00        20999.52
873.00        20940.46
874.00        21016.04
875.00        21080.99
876.00        20964.89
877.00        21020.87
878.00        21084.03
879.00        21143.97
880.00        21220.32
881.00         21266.3
882.00        21340.46
883.00         21400.4
884.00         21495.4
885.00        21668.72
886.00        21650.09
887.00        21671.79
888.00        21789.32
889.00        21919.86
890.00        22022.33
891.00        22056.26
892.00        22069.36
893.00        22084.81
894.00        22198.29
895.00        22148.21
896.00        22184.76
897.00        22355.77
898.00        22243.68
899.00        22133.21
900.00        22334.42
901.00        22289.81
902.00        22135.71
903.00        22193.17
904.00        22254.73
905.00        22347.68
906.00        22221.68
907.00        22109.15
908.00        22246.22
909.00        22152.27
910.00        22060.62
911.00        22067.65
912.00        21931.67
913.00        21988.29
914.00        21831.28
915.00        21805.39
916.00        21778.82
917.00        21725.54
918.00        21661.75
919.00        21442.72
920.00        21312.99
921.00        21253.84
922.00        21130.49
923.00         20886.6
924.00        20656.59
925.00        20483.74
926.00        20297.21
927.00        20063.82
928.00        19966.84
929.00        19622.75
930.00        19444.18
931.00        19191.67
932.00        18647.18
933.00        18114.75
934.00        17466.19
935.00        16588.71
936.00        15560.76
937.00        14682.62
938.00        13719.72
939.00           12922
940.00        12306.59
941.00        11805.01
942.00        11450.58
943.00        11375.94
944.00        11384.81
945.00        11547.91
946.00        11700.54
947.00        11885.85
948.00        12235.44
949.00        12484.95
950.00        12867.25
951.00        13217.02
952.00        13492.76
953.00        13785.21
954.00        14185.38
955.00        14388.87
956.00        14640.21
957.00        14977.85
958.00        15233.27
959.00         15380.3
960.00         15600.2
961.00        15736.18
962.00        15880.96
963.00        16036.88
964.00        16022.82
965.00         16063.4
966.00        15974.61
967.00        16004.81
968.00        16101.65
969.00        16079.91
970.00        16211.87
971.00        16137.93
972.00        16095.09
973.00         16160.8
974.00        16231.46
975.00        16221.55
976.00        16254.44
977.00        16263.17
978.00        16110.45
979.00        15945.61
980.00        15932.78
981.00        15894.45
982.00        15662.74
983.00        15532.55
984.00        15487.86
985.00        15388.37
986.00         15223.9
987.00        15135.93
988.00        14972.13
989.00        14727.76
990.00        14413.54
991.00         14061.5
992.00        13688.52
993.00        13255.29
994.00        12852.76
995.00        12588.21
996.00        12170.14
997.00        11702.62
998.00        11333.77
999.00        10872.01
1000.00        10552.33
1001.00        10081.67
1002.00        9706.343
1003.00        9391.251
1004.00        8859.559
1005.00        8487.377
1006.00        8159.583
1007.00        7709.583
1008.00          7325.3
1009.00        7027.903
1010.00        6654.491
1011.00        6266.692
1012.00        5909.424
1013.00        5582.656
1014.00        5228.372
1015.00         4912.57
1016.00        4634.479
1017.00        4285.956
1018.00         4011.17
1019.00         3780.31
1020.00        3396.458
