SpectraSmart Spectrum 2.6.17.30709
--------- Device Information -----------
Spectrum Name :  Spectrum_0
Saving Time :  2021/11/14 20:58:36
Spectro-Module Model Name : SE1030-VNIR
Spectro-Module Serial Number : OS361AC55010184
Wavelength Start : 350
Wavelength End : 1020
Wavelength Unit : Wavelength(nm)
Spectrum Unit : Intensity(Counts)
-----------Spectrum Setting ------------
Integration Time : 50ms
Average : 1
Boxcar : 0
Background removal :  enabled
linearity correction :  enabled
SC :  disabled
Intensity correction :  disabled
DWT denoise :  enabled
savitzky-golay :  disabled
FFT :  disabled
Running average :  disabled
Kalman :  disabled
High pass :  disabled
---------------BEGIN--------------------
Wavelength(nm)          Intensity(Counts)
350.00        69.16016
351.00        63.88759
352.00         68.9826
353.00        81.38349
354.00        82.96301
355.00         84.3399
356.00           105.2
357.00        103.3816
358.00        88.15012
359.00        86.75253
360.00        102.3742
361.00        114.8842
362.00        98.40183
363.00        95.51255
364.00         102.738
365.00        96.15691
366.00        95.36087
367.00        99.47999
368.00        100.0478
369.00         102.745
370.00        102.6046
371.00        93.80978
372.00        88.41798
373.00        89.26476
374.00        95.14574
375.00        87.90434
376.00        82.62361
377.00        103.8523
378.00        112.1698
379.00        108.2645
380.00        110.7012
381.00        102.7309
382.00        94.01336
383.00        98.50676
384.00        104.7526
385.00        106.1083
386.00        99.87766
387.00        102.6948
388.00        106.4194
389.00        96.64987
390.00        97.36962
391.00        104.9024
392.00        106.8352
393.00         107.832
394.00        108.3957
395.00        108.4242
396.00        103.9052
397.00        98.29796
398.00        97.41938
399.00        102.6426
400.00        110.9989
401.00        116.9464
402.00        113.7237
403.00        108.0805
404.00        109.9858
405.00        118.5377
406.00        127.6142
407.00        130.5906
408.00         112.326
409.00        104.5416
410.00        126.9046
411.00        120.8998
412.00        106.2899
413.00         108.252
414.00         113.997
415.00        115.5857
416.00        110.2759
417.00        121.8056
418.00        126.4702
419.00        111.1039
420.00        107.7866
421.00        109.8648
422.00        112.7274
423.00        124.7185
424.00        131.1644
425.00        125.9982
426.00        124.5651
427.00         116.543
428.00        107.0031
429.00        125.7008
430.00         133.034
431.00        122.1088
432.00         131.027
433.00        128.0711
434.00        118.9919
435.00         139.981
436.00        147.5926
437.00        138.7149
438.00        140.1271
439.00         135.774
440.00        133.2267
441.00        146.3351
442.00         145.152
443.00        133.0051
444.00        128.8945
445.00        130.1744
446.00        140.1127
447.00        157.2567
448.00        137.0735
449.00         117.515
450.00        139.4545
451.00         139.363
452.00        135.0142
453.00        149.0293
454.00        171.5771
455.00        170.1531
456.00        137.6523
457.00        137.6516
458.00        155.8583
459.00        167.4357
460.00        146.7064
461.00        145.1449
462.00        174.2604
463.00         168.086
464.00        167.7106
465.00        179.2135
466.00        171.1246
467.00         169.667
468.00        173.7359
469.00        165.1527
470.00        172.2372
471.00        186.0845
472.00        184.2557
473.00        182.0295
474.00        183.1412
475.00        186.3439
476.00        197.6694
477.00        202.5672
478.00        191.9972
479.00        186.5162
480.00        193.0371
481.00         207.778
482.00        221.1988
483.00         218.048
484.00         203.395
485.00        219.6023
486.00        232.0764
487.00        228.5218
488.00        237.6031
489.00         242.069
490.00        243.0237
491.00         256.666
492.00        253.0773
493.00        249.5994
494.00        279.2845
495.00        278.3585
496.00        266.2868
497.00         282.538
498.00        281.5016
499.00        283.7196
500.00        307.2941
501.00         299.194
502.00        299.8476
503.00         328.429
504.00        310.6438
505.00        312.5892
506.00        348.9663
507.00        348.2014
508.00        349.4821
509.00        364.7418
510.00        381.7007
511.00        394.2875
512.00        394.2673
513.00         381.978
514.00        399.2945
515.00        430.4382
516.00        445.1972
517.00        457.6452
518.00        470.2448
519.00        484.3848
520.00        488.4902
521.00        505.9578
522.00        539.7532
523.00         549.888
524.00        572.9646
525.00        607.4599
526.00        620.2105
527.00        623.6447
528.00         636.038
529.00         669.106
530.00        714.1287
531.00        740.8015
532.00         736.853
533.00        760.0608
534.00        794.0207
535.00        816.4681
536.00        834.4075
537.00        858.7263
538.00        888.3323
539.00        897.5179
540.00        927.1887
541.00        970.6166
542.00        992.1329
543.00        1043.658
544.00         1103.79
545.00        1135.478
546.00        1167.264
547.00         1197.01
548.00        1223.813
549.00        1267.583
550.00        1303.588
551.00        1329.455
552.00        1379.175
553.00        1423.572
554.00        1448.275
555.00         1455.41
556.00        1494.421
557.00         1552.42
558.00        1595.397
559.00        1643.297
560.00        1686.072
561.00        1718.827
562.00        1757.347
563.00        1801.296
564.00        1849.059
565.00        1914.307
566.00        1919.174
567.00        1922.748
568.00        2031.609
569.00        2045.138
570.00        2048.051
571.00        2148.776
572.00        2198.631
573.00        2222.109
574.00        2256.072
575.00        2318.246
576.00        2356.136
577.00        2358.854
578.00        2361.116
579.00        2402.458
580.00         2465.91
581.00        2513.799
582.00        2554.841
583.00        2595.854
584.00        2643.021
585.00        2683.999
586.00        2728.158
587.00        2764.069
588.00        2756.304
589.00        2824.804
590.00        2903.726
591.00        2891.522
592.00        2971.022
593.00        3026.219
594.00        2986.142
595.00        3043.439
596.00        3108.633
597.00        3142.792
598.00         3178.76
599.00        3189.329
600.00        3204.884
601.00        3250.476
602.00        3216.492
603.00        3211.664
604.00        3305.421
605.00        3367.389
606.00        3426.508
607.00        3476.488
608.00        3490.719
609.00        3555.229
610.00        3636.669
611.00        3679.361
612.00        3729.496
613.00        3791.359
614.00        3861.231
615.00         3926.22
616.00        3983.331
617.00        4034.083
618.00        4082.546
619.00        4166.918
620.00        4248.433
621.00        4299.989
622.00        4407.773
623.00        4485.371
624.00        4522.016
625.00        4596.865
626.00        4698.648
627.00        4802.233
628.00        4883.144
629.00        4943.021
630.00        5019.264
631.00        5127.148
632.00        5220.691
633.00        5347.098
634.00        5469.292
635.00        5531.984
636.00        5555.276
637.00        5647.775
638.00        5846.033
639.00        6007.895
640.00        6083.533
641.00        6144.667
642.00        6322.597
643.00        6446.316
644.00        6538.727
645.00        6662.645
646.00        6746.335
647.00        6874.565
648.00        7034.282
649.00        7118.314
650.00        7265.035
651.00        7432.672
652.00        7547.288
653.00        7613.706
654.00        7776.317
655.00        8011.028
656.00        8085.473
657.00        8219.895
658.00        8395.259
659.00        8524.443
660.00        8702.389
661.00        8837.789
662.00        8937.986
663.00        9145.692
664.00        9350.591
665.00        9503.184
666.00        9610.104
667.00        9810.862
668.00        10020.14
669.00        10178.53
670.00        10330.55
671.00        10486.17
672.00        10693.15
673.00        10956.22
674.00        11185.63
675.00        11359.86
676.00        11518.02
677.00        11734.11
678.00        11923.24
679.00        12108.68
680.00        12333.58
681.00        12537.43
682.00         12794.8
683.00        13071.03
684.00        13266.81
685.00        13414.45
686.00        13633.92
687.00         13950.7
688.00        14155.95
689.00        14283.31
690.00        14464.26
691.00        14765.98
692.00        15066.36
693.00         15303.7
694.00        15503.04
695.00        15757.61
696.00        16040.51
697.00        16242.35
698.00        16321.49
699.00        16637.64
700.00        16874.92
701.00        16999.08
702.00        17386.58
703.00        17540.25
704.00        17773.28
705.00        18184.37
706.00        18121.09
707.00         18205.3
708.00        18523.87
709.00        18767.47
710.00        18999.89
711.00        19224.42
712.00        19450.29
713.00        19649.86
714.00        19844.09
715.00        20011.63
716.00         20132.7
717.00        20229.65
718.00        20371.14
719.00        20606.31
720.00        20901.53
721.00        20952.41
722.00        20999.77
723.00         21226.9
724.00        21532.16
725.00        21601.78
726.00        21641.74
727.00        21960.94
728.00        21989.32
729.00        22177.61
730.00        22393.46
731.00        22333.03
732.00        22362.01
733.00        22554.21
734.00        22815.99
735.00        22895.55
736.00        22996.34
737.00         23127.6
738.00        23276.06
739.00        23417.73
740.00        23565.42
741.00        23737.01
742.00         23837.2
743.00        23996.99
744.00        24067.65
745.00        24087.66
746.00        24144.38
747.00        24207.78
748.00           24319
749.00        24555.13
750.00        24648.43
751.00        24701.21
752.00        24744.38
753.00        24845.99
754.00         24822.8
755.00        25058.51
756.00        25021.18
757.00        24967.86
758.00        25080.63
759.00        25276.13
760.00        25360.33
761.00        25199.35
762.00        25219.04
763.00        25276.59
764.00        25307.94
765.00        25321.15
766.00        25382.73
767.00        25403.57
768.00        25422.74
769.00        25522.34
770.00        25468.21
771.00        25562.81
772.00         25778.5
773.00        25594.73
774.00        25624.63
775.00        25613.56
776.00        25440.99
777.00        25605.76
778.00        25526.29
779.00        25479.07
780.00        25658.74
781.00        25612.09
782.00        25491.23
783.00        25549.91
784.00        25617.55
785.00        25555.65
786.00         25670.1
787.00           25796
788.00        25712.31
789.00        25702.46
790.00        25675.85
791.00         25663.3
792.00        25675.33
793.00        25587.84
794.00        25581.04
795.00         25634.3
796.00         25632.9
797.00        25574.62
798.00        25531.04
799.00        25549.62
800.00        25606.86
801.00        25668.15
802.00         25558.1
803.00         25417.8
804.00        25449.11
805.00        25485.07
806.00        25653.25
807.00        25710.49
808.00        25511.25
809.00        25512.07
810.00        25554.69
811.00        25513.39
812.00        25413.05
813.00        25609.34
814.00        25574.39
815.00        25454.35
816.00        25323.76
817.00        25525.72
818.00        25547.87
819.00        25456.44
820.00        25460.79
821.00        25478.89
822.00        25566.44
823.00         25579.4
824.00        25510.39
825.00        25578.09
826.00        25577.38
827.00        25607.84
828.00        25542.54
829.00         25535.7
830.00        25638.23
831.00        25724.76
832.00        25758.34
833.00        25882.37
834.00        25742.13
835.00        25762.36
836.00        25861.42
837.00        25846.05
838.00        26007.89
839.00        26106.47
840.00        25994.31
841.00        25911.17
842.00        25955.67
843.00        26148.94
844.00        26241.18
845.00        26209.16
846.00        26432.27
847.00        26426.19
848.00        26411.35
849.00        26462.97
850.00         26757.7
851.00        26632.22
852.00        26599.22
853.00        26836.62
854.00        26850.93
855.00        26807.28
856.00        26898.99
857.00        27043.93
858.00         26998.3
859.00        27024.23
860.00        27268.46
861.00         27305.6
862.00        27279.19
863.00        27545.38
864.00        27402.64
865.00        27433.54
866.00        27619.28
867.00        27668.78
868.00        27807.39
869.00        27749.95
870.00        27907.81
871.00        27930.17
872.00        28120.59
873.00         28164.2
874.00        28032.17
875.00         28167.5
876.00        28241.29
877.00        28221.78
878.00        28260.03
879.00           28330
880.00        28405.14
881.00        28609.44
882.00        28463.97
883.00         28488.4
884.00        28603.65
885.00        28654.88
886.00        28802.27
887.00        28846.43
888.00        28762.93
889.00        28783.14
890.00        28982.79
891.00        29190.06
892.00        29196.51
893.00        29093.01
894.00        29122.18
895.00        29077.31
896.00        29203.76
897.00         29312.9
898.00        29288.56
899.00        29217.27
900.00         29206.7
901.00        29241.26
902.00        29253.19
903.00        29247.71
904.00        29228.11
905.00        29241.42
906.00        29190.62
907.00        29125.56
908.00        29161.65
909.00        29399.13
910.00        29127.59
911.00        28988.79
912.00        28967.71
913.00        28776.82
914.00        28772.31
915.00        28666.73
916.00        28502.34
917.00        28506.83
918.00        28346.89
919.00        28563.24
920.00        28282.17
921.00         28122.3
922.00        28178.69
923.00         27969.1
924.00        27790.91
925.00        27695.56
926.00        27493.83
927.00        27161.58
928.00         27258.1
929.00        26825.96
930.00        26586.01
931.00        26370.39
932.00        25915.46
933.00        25586.16
934.00        24967.23
935.00        24539.77
936.00        23886.59
937.00        23322.83
938.00        22785.08
939.00        22585.93
940.00        22283.24
941.00        21952.92
942.00        21756.41
943.00        21723.01
944.00        21645.69
945.00        21665.74
946.00        21877.83
947.00        22088.42
948.00        22007.05
949.00        22144.68
950.00        22263.97
951.00        22371.39
952.00        22540.38
953.00        22624.42
954.00        22638.16
955.00        22695.31
956.00        22724.21
957.00        22816.48
958.00        22970.82
959.00        22965.56
960.00        22904.03
961.00        22840.57
962.00        22886.71
963.00        22928.05
964.00        22715.79
965.00        22548.38
966.00        22373.39
967.00         22230.8
968.00        22179.04
969.00         22180.8
970.00        21993.03
971.00        21955.59
972.00        21889.88
973.00        21799.92
974.00        21776.46
975.00         21799.6
976.00        21686.28
977.00        21572.25
978.00        21293.17
979.00        21129.68
980.00        20822.08
981.00        20769.57
982.00         20610.3
983.00        20373.21
984.00        20135.37
985.00         20002.1
986.00           19922
987.00        19646.97
988.00        19351.94
989.00        18989.11
990.00        18626.19
991.00        18191.91
992.00        17663.71
993.00        16997.38
994.00        16523.54
995.00        16027.12
996.00        15468.73
997.00         14949.8
998.00        14427.43
999.00        13982.43
1000.00        13391.82
1001.00        12862.71
1002.00        12366.19
1003.00        11828.11
1004.00        11277.13
1005.00         10777.9
1006.00        10284.68
1007.00        9776.338
1008.00        9329.724
1009.00        8895.771
1010.00        8395.686
1011.00        7939.334
1012.00        7406.045
1013.00        7024.891
1014.00        6636.373
1015.00        6206.167
1016.00        5803.632
1017.00        5411.914
1018.00        5029.775
1019.00        4714.391
1020.00        4307.601
