SpectraSmart Spectrum 2.6.17.30709
--------- Device Information -----------
Spectrum Name :  Spectrum_0
Saving Time :  2021/11/14 20:50:34
Spectro-Module Model Name : SE1030-VNIR
Spectro-Module Serial Number : OS361AC55010184
Wavelength Start : 350
Wavelength End : 1020
Wavelength Unit : Wavelength(nm)
Spectrum Unit : Intensity(Counts)
-----------Spectrum Setting ------------
Integration Time : 50ms
Average : 1
Boxcar : 0
Background removal :  enabled
linearity correction :  enabled
SC :  disabled
Intensity correction :  disabled
DWT denoise :  enabled
savitzky-golay :  disabled
FFT :  disabled
Running average :  disabled
Kalman :  disabled
High pass :  disabled
---------------BEGIN--------------------
Wavelength(nm)          Intensity(Counts)
350.00        121.9398
351.00        119.2227
352.00        104.3035
353.00        109.7508
354.00         120.727
355.00        129.2975
356.00        132.8202
357.00        119.4022
358.00        111.9225
359.00        138.9843
360.00        146.7389
361.00        140.3479
362.00         150.625
363.00        152.6643
364.00        150.0674
365.00        154.4411
366.00        166.4938
367.00        175.0348
368.00        169.3838
369.00        150.4364
370.00        140.5973
371.00        164.0453
372.00        157.4364
373.00        139.2831
374.00        157.2811
375.00        177.5406
376.00        181.2023
377.00        160.4651
378.00        162.3793
379.00        174.0712
380.00        159.5704
381.00         148.982
382.00         149.286
383.00         156.925
384.00        156.2387
385.00        152.6038
386.00        160.5861
387.00        164.9013
388.00        167.8948
389.00        177.9987
390.00         161.571
391.00        148.4752
392.00        176.6533
393.00         180.227
394.00        168.8877
395.00        174.7808
396.00        171.3641
397.00        167.5086
398.00        173.0748
399.00        174.4906
400.00        162.7625
401.00        140.7575
402.00        156.6384
403.00        184.0253
404.00        183.6448
405.00        183.6069
406.00        182.0826
407.00        176.2839
408.00        170.2554
409.00        171.8726
410.00        183.0875
411.00        185.7779
412.00        184.5279
413.00        184.8919
414.00        186.8286
415.00        177.6071
416.00        158.1062
417.00         179.369
418.00        195.7046
419.00        178.1166
420.00        186.4945
421.00        189.7045
422.00        174.3105
423.00        178.1513
424.00        185.6407
425.00        186.4798
426.00        188.3014
427.00        185.2651
428.00        181.0737
429.00        196.7431
430.00        193.0063
431.00        173.1054
432.00        194.6746
433.00        205.3234
434.00         201.053
435.00        225.8751
436.00        222.3824
437.00        205.6286
438.00        236.8448
439.00        238.0055
440.00        222.0386
441.00        244.6423
442.00        238.3983
443.00        218.1197
444.00        224.5802
445.00        236.1228
446.00        246.7361
447.00        255.2202
448.00         267.752
449.00        278.5898
450.00        281.6528
451.00        265.7917
452.00        267.1998
453.00        304.9802
454.00        314.1707
455.00        310.7922
456.00        317.0704
457.00        330.9774
458.00        332.6073
459.00        319.9248
460.00        330.0693
461.00        357.3431
462.00        382.6739
463.00        373.7395
464.00        370.3303
465.00         382.781
466.00         381.836
467.00        393.8513
468.00        413.7851
469.00          415.72
470.00        429.7794
471.00        441.9284
472.00        423.6198
473.00        446.6651
474.00        480.1241
475.00        471.5003
476.00         499.682
477.00        527.0652
478.00         511.436
479.00        518.0434
480.00        533.1002
481.00        540.4835
482.00        554.1473
483.00         576.965
484.00        602.0073
485.00        595.3878
486.00        603.9042
487.00        634.3004
488.00        622.8353
489.00        646.8175
490.00        695.0176
491.00        686.4424
492.00        703.1415
493.00         735.182
494.00         731.306
495.00        767.0901
496.00         802.688
497.00        785.9928
498.00        796.0256
499.00        825.5752
500.00        847.5637
501.00        851.7619
502.00        862.8751
503.00        895.9034
504.00         919.522
505.00        940.0629
506.00        967.2347
507.00        1010.837
508.00        1054.002
509.00        1086.245
510.00        1110.585
511.00        1135.841
512.00        1177.179
513.00        1241.747
514.00        1269.298
515.00        1287.139
516.00        1339.445
517.00        1379.187
518.00        1429.083
519.00        1501.677
520.00        1556.151
521.00        1598.126
522.00        1639.577
523.00        1688.033
524.00        1753.303
525.00        1823.966
526.00        1874.317
527.00        1939.852
528.00        2017.148
529.00        2082.698
530.00        2155.368
531.00        2223.241
532.00        2280.914
533.00         2405.11
534.00        2513.959
535.00        2561.321
536.00        2681.688
537.00        2789.996
538.00        2860.146
539.00        2975.908
540.00        3048.139
541.00        3114.906
542.00        3268.719
543.00         3421.42
544.00        3525.151
545.00        3584.242
546.00        3691.263
547.00        3835.852
548.00         3971.25
549.00        4052.543
550.00        4157.124
551.00        4306.787
552.00        4404.817
553.00        4523.212
554.00        4660.606
555.00        4774.355
556.00        4858.793
557.00        4957.591
558.00        5104.302
559.00        5248.629
560.00        5349.867
561.00        5425.043
562.00        5592.549
563.00        5786.606
564.00        5935.246
565.00        6012.654
566.00        6083.146
567.00        6198.292
568.00        6369.273
569.00        6493.262
570.00        6610.924
571.00        6776.575
572.00        6892.279
573.00        6980.539
574.00        7067.563
575.00        7164.603
576.00         7255.42
577.00        7371.443
578.00        7568.561
579.00        7658.891
580.00        7690.294
581.00        7788.583
582.00        7953.821
583.00        8109.654
584.00         8199.86
585.00        8295.467
586.00        8374.502
587.00        8436.875
588.00         8493.16
589.00        8661.309
590.00        8858.952
591.00        8956.381
592.00        9034.605
593.00        9112.776
594.00        9213.095
595.00        9388.316
596.00        9510.988
597.00        9565.602
598.00        9680.332
599.00         9692.99
600.00        9723.204
601.00        9903.181
602.00        9855.806
603.00        9838.302
604.00        10034.33
605.00        10146.29
606.00        10271.04
607.00        10424.26
608.00        10569.51
609.00           10686
610.00        10825.45
611.00        11020.85
612.00        11152.64
613.00        11267.26
614.00         11431.3
615.00        11697.79
616.00        11879.52
617.00        12001.92
618.00        12205.32
619.00        12369.66
620.00        12504.89
621.00        12656.94
622.00         12893.4
623.00        13084.47
624.00        13229.86
625.00        13470.54
626.00        13763.71
627.00        14011.24
628.00        14161.53
629.00        14332.02
630.00        14601.82
631.00        14932.49
632.00        15130.01
633.00           15353
634.00        15623.18
635.00        15881.64
636.00        16067.02
637.00        16321.72
638.00        16713.68
639.00        16971.64
640.00        17276.85
641.00        17626.14
642.00        17897.58
643.00        18083.19
644.00        18404.72
645.00        18933.77
646.00           19121
647.00        19332.23
648.00        19699.84
649.00        20003.17
650.00        20358.04
651.00        20736.06
652.00        21079.58
653.00        21467.66
654.00        21805.96
655.00        22094.29
656.00           22468
657.00        22805.32
658.00        23179.19
659.00        23652.53
660.00        23976.28
661.00        24328.22
662.00        24794.84
663.00        25280.29
664.00         25649.4
665.00        26059.05
666.00        26655.55
667.00        27018.48
668.00        27396.48
669.00        27843.43
670.00        28076.75
671.00        28547.15
672.00        29159.59
673.00        29674.97
674.00        30052.31
675.00        30532.29
676.00        31192.86
677.00        31665.62
678.00        32183.55
679.00        32676.59
680.00        33080.19
681.00        33704.42
682.00         34174.2
683.00         34547.5
684.00        35236.31
685.00        35776.78
686.00        36257.48
687.00        36812.79
688.00        37234.36
689.00        37788.56
690.00        38473.58
691.00        39070.81
692.00         39801.2
693.00        40202.34
694.00        40446.05
695.00        41235.61
696.00        41816.04
697.00        42355.47
698.00        43035.11
699.00        43447.03
700.00        43916.42
701.00        44549.95
702.00        45145.38
703.00        45660.77
704.00        46040.02
705.00        46554.98
706.00        47039.44
707.00        47401.03
708.00        47699.47
709.00        48458.58
710.00        49006.77
711.00        49418.42
712.00         49871.8
713.00        50168.03
714.00         50554.6
715.00        50931.61
716.00        51305.84
717.00        51613.33
718.00        51985.08
719.00         52399.2
720.00        52529.19
721.00        52972.56
722.00           53366
723.00        53661.48
724.00        54260.97
725.00        54546.61
726.00        54705.26
727.00        55028.68
728.00        55354.44
729.00        55692.16
730.00         55881.3
731.00        55838.21
732.00        56174.21
733.00        56427.06
734.00        56490.81
735.00        56974.01
736.00        57223.22
737.00        57413.26
738.00        57632.67
739.00         57788.9
740.00         58214.9
741.00         58654.9
742.00        58578.41
743.00         58984.7
744.00        58924.12
745.00        59154.74
746.00         59619.3
747.00        59647.99
748.00        59699.52
749.00        59982.69
750.00        60087.84
751.00        60009.71
752.00        59977.32
753.00         60166.1
754.00        60594.53
755.00        60735.02
756.00        60584.56
757.00        60438.07
758.00        60847.73
759.00        60977.67
760.00        61012.36
761.00        60893.62
762.00         60776.8
763.00        60959.11
764.00        61134.76
765.00         60768.4
766.00        60764.29
767.00        60881.74
768.00        60969.59
769.00        61006.88
770.00        61030.25
771.00        60897.02
772.00         60773.9
773.00        61069.63
774.00         60691.9
775.00        60741.45
776.00        60679.16
777.00        60426.39
778.00        60321.05
779.00        60338.25
780.00        60246.71
781.00         60427.2
782.00        60087.99
783.00         60067.2
784.00        60081.87
785.00        60002.92
786.00           59935
787.00        59993.13
788.00        60139.47
789.00        60112.96
790.00         59721.5
791.00        59501.95
792.00        59799.07
793.00        59372.46
794.00        59301.34
795.00        59451.03
796.00         59267.4
797.00        59147.94
798.00        59062.73
799.00         58966.3
800.00        59043.26
801.00        58965.95
802.00        58794.05
803.00        58652.05
804.00        58456.09
805.00        58628.76
806.00        58648.43
807.00        58532.09
808.00        58446.41
809.00         58450.1
810.00        58301.97
811.00        58257.19
812.00        57915.58
813.00         58074.4
814.00        58177.14
815.00        58158.05
816.00        58035.64
817.00        57820.49
818.00        57802.51
819.00         57804.1
820.00        57648.77
821.00        57508.55
822.00        57356.88
823.00        57399.38
824.00        57423.63
825.00        57463.07
826.00        57333.96
827.00        57364.38
828.00        57591.49
829.00        57629.04
830.00        57301.45
831.00           57250
832.00        57467.81
833.00        57336.34
834.00        57276.06
835.00        57400.78
836.00        57421.92
837.00        57557.68
838.00        57422.87
839.00         57796.3
840.00        57748.44
841.00        57585.69
842.00        57540.93
843.00         57806.3
844.00        58001.92
845.00        57839.75
846.00        57882.42
847.00        58168.97
848.00        58334.89
849.00        58222.69
850.00        58336.84
851.00         58658.2
852.00        58453.04
853.00        58477.78
854.00        58823.55
855.00        58482.57
856.00        58912.01
857.00        58945.14
858.00        58709.29
859.00        59290.15
860.00        59258.16
861.00         59262.6
862.00        59488.33
863.00        59218.73
864.00        59412.82
865.00        59683.05
866.00        59564.36
867.00        59504.14
868.00        59871.36
869.00        60055.33
870.00        60099.89
871.00        60274.03
872.00        60252.01
873.00        60132.86
874.00        60252.76
875.00        60422.05
876.00        60275.71
877.00        60581.78
878.00        60589.09
879.00        60692.29
880.00        60693.58
881.00        60704.59
882.00        60861.04
883.00        60932.05
884.00        60885.46
885.00        60932.75
886.00        61142.25
887.00        61002.41
888.00        60996.58
889.00        61373.91
890.00        61521.73
891.00        61601.17
892.00        61692.96
893.00        61519.51
894.00        61718.97
895.00        61442.49
896.00        61475.72
897.00        61577.94
898.00        61519.23
899.00        61441.59
900.00        61671.85
901.00        61612.05
902.00         61264.8
903.00        61057.62
904.00        61328.62
905.00        61211.32
906.00        60778.89
907.00        60725.93
908.00        60950.25
909.00        60797.26
910.00        60721.88
911.00        60518.26
912.00           60206
913.00        60087.92
914.00        60156.03
915.00        59764.35
916.00        59341.39
917.00        59182.97
918.00        58906.21
919.00        58895.06
920.00        58491.66
921.00        58138.54
922.00         58033.5
923.00        57615.22
924.00        57382.09
925.00        57068.68
926.00        56608.53
927.00         56055.7
928.00        55694.05
929.00        55257.09
930.00        54719.97
931.00        53922.65
932.00        53297.32
933.00        52220.23
934.00        51222.94
935.00        50157.98
936.00        48863.68
937.00        47697.72
938.00        46647.47
939.00        45686.27
940.00        45155.95
941.00        44645.71
942.00        44096.18
943.00        44059.54
944.00        44187.77
945.00        44020.38
946.00        44149.72
947.00        44670.09
948.00        44515.16
949.00        44681.77
950.00        45011.35
951.00        45155.71
952.00        45228.02
953.00        45580.04
954.00        45680.58
955.00        45892.84
956.00           45921
957.00        45974.36
958.00         46234.8
959.00        46224.54
960.00        46004.42
961.00        45954.14
962.00        46008.59
963.00        45770.71
964.00        45501.69
965.00        45031.14
966.00         44456.5
967.00         44338.7
968.00        44303.51
969.00        44019.42
970.00        43731.75
971.00        43816.04
972.00        43605.95
973.00        43234.89
974.00        43123.32
975.00        43188.14
976.00        43024.04
977.00        42535.12
978.00        42093.89
979.00        41749.07
980.00        41347.81
981.00        41032.33
982.00        40557.67
983.00        40224.83
984.00        39855.89
985.00         39399.4
986.00        39014.47
987.00         38603.8
988.00        38185.12
989.00        37495.67
990.00        36499.47
991.00        35471.58
992.00        34559.11
993.00        33380.71
994.00        32400.15
995.00        31376.24
996.00        30298.75
997.00        29204.29
998.00        28063.32
999.00        27048.57
1000.00        26019.98
1001.00        24987.59
1002.00        23954.87
1003.00        22861.84
1004.00        21838.07
1005.00        20942.85
1006.00        20012.94
1007.00        18873.09
1008.00        18005.83
1009.00        17279.43
1010.00        16268.89
1011.00        15340.31
1012.00         14592.9
1013.00        13606.25
1014.00        12784.91
1015.00        12050.63
1016.00        11189.81
1017.00        10446.37
1018.00        9711.186
1019.00        9160.639
1020.00        8267.244
