SpectraSmart Spectrum 2.6.17.30709
--------- Device Information -----------
Spectrum Name :  Spectrum_0
Saving Time :  2021/11/14 20:56:08
Spectro-Module Model Name : SE1030-VNIR
Spectro-Module Serial Number : OS361AC55010184
Wavelength Start : 350
Wavelength End : 1020
Wavelength Unit : Wavelength(nm)
Spectrum Unit : Intensity(Counts)
-----------Spectrum Setting ------------
Integration Time : 50ms
Average : 1
Boxcar : 0
Background removal :  enabled
linearity correction :  enabled
SC :  disabled
Intensity correction :  disabled
DWT denoise :  enabled
savitzky-golay :  disabled
FFT :  disabled
Running average :  disabled
Kalman :  disabled
High pass :  disabled
---------------BEGIN--------------------
Wavelength(nm)          Intensity(Counts)
350.00         69.7171
351.00        80.01814
352.00        102.5458
353.00        94.29559
354.00        99.78101
355.00        111.7989
356.00        106.9289
357.00        102.1267
358.00        102.8012
359.00        109.4237
360.00           110.7
361.00        108.9642
362.00        113.1901
363.00        109.0562
364.00        104.2078
365.00         109.058
366.00        132.4396
367.00        144.1254
368.00        108.3979
369.00        100.0099
370.00        116.8681
371.00        119.6762
372.00        119.5077
373.00        116.9464
374.00        113.7192
375.00        113.9885
376.00        119.7573
377.00         129.494
378.00        132.0331
379.00        125.5754
380.00        113.2736
381.00        118.9085
382.00        127.8683
383.00        112.7246
384.00        127.6697
385.00        147.2728
386.00        125.7223
387.00        113.7015
388.00        116.4161
389.00        119.9758
390.00        136.0869
391.00        148.7815
392.00        141.6234
393.00         137.587
394.00        135.6713
395.00         128.109
396.00        124.5436
397.00        125.4727
398.00        129.5741
399.00        131.4272
400.00        138.0668
401.00        154.0509
402.00        145.2164
403.00        131.1741
404.00         137.343
405.00        131.4198
406.00        125.1459
407.00        132.8508
408.00        142.4947
409.00        145.6935
410.00        140.0174
411.00        133.7707
412.00        135.4183
413.00         143.963
414.00        131.6972
415.00         121.241
416.00        130.7206
417.00        135.4077
418.00        136.4797
419.00        136.9466
420.00        135.2497
421.00         139.287
422.00        147.6496
423.00        142.7622
424.00        135.3899
425.00        134.7913
426.00        149.3444
427.00        144.8401
428.00        122.8635
429.00        145.3995
430.00        153.9908
431.00        138.9165
432.00        154.3676
433.00        155.4751
434.00        143.7542
435.00        160.2959
436.00        162.2461
437.00          152.46
438.00        166.6199
439.00        158.6632
440.00        147.5368
441.00        179.7454
442.00        178.3542
443.00        164.0327
444.00        189.5799
445.00        185.4637
446.00        174.9492
447.00        197.4674
448.00        190.5928
449.00        177.2061
450.00        191.5457
451.00         209.292
452.00        220.6442
453.00        221.8454
454.00        217.7976
455.00        220.8978
456.00        233.1884
457.00        228.3257
458.00        225.5155
459.00        237.0821
460.00        251.5893
461.00        256.0197
462.00        252.8211
463.00        268.6144
464.00        280.7452
465.00        280.0193
466.00        271.3117
467.00        280.5247
468.00        299.1168
469.00        293.9353
470.00        295.9698
471.00         304.925
472.00        305.3688
473.00        318.1377
474.00        329.1496
475.00        320.3532
476.00        336.9339
477.00        349.4299
478.00        329.4181
479.00        348.0147
480.00        367.6823
481.00        358.3842
482.00        387.1547
483.00        400.9634
484.00        376.7943
485.00          377.04
486.00        386.6707
487.00        398.0075
488.00        421.9617
489.00        427.3616
490.00        427.0563
491.00        467.9727
492.00        479.6317
493.00        477.1714
494.00        514.0876
495.00        508.0508
496.00         495.418
497.00        533.7823
498.00        524.1159
499.00        529.9226
500.00        599.5594
501.00        591.4004
502.00        574.9103
503.00        606.1783
504.00         608.335
505.00        631.6297
506.00        676.3802
507.00        668.3428
508.00        683.4907
509.00        727.6734
510.00        753.9606
511.00        749.9709
512.00         751.324
513.00        803.8381
514.00        832.9348
515.00         851.909
516.00        891.2633
517.00        924.3328
518.00         937.004
519.00        935.9239
520.00        969.5742
521.00        1021.036
522.00         1068.66
523.00        1103.919
524.00        1141.347
525.00        1186.403
526.00        1227.255
527.00        1292.823
528.00        1358.392
529.00        1388.249
530.00          1408.5
531.00        1446.724
532.00        1512.501
533.00        1548.263
534.00        1593.004
535.00        1672.357
536.00        1727.867
537.00        1781.929
538.00        1851.114
539.00        1941.141
540.00        1997.766
541.00        2032.642
542.00        2094.862
543.00        2193.752
544.00        2278.678
545.00        2303.222
546.00        2397.202
547.00        2474.425
548.00        2483.033
549.00         2627.88
550.00        2746.492
551.00        2777.583
552.00        2873.237
553.00        2932.921
554.00        2960.555
555.00        3025.437
556.00        3061.521
557.00        3123.016
558.00        3261.599
559.00        3370.706
560.00        3441.732
561.00        3495.937
562.00        3559.316
563.00         3626.24
564.00         3697.27
565.00        3785.022
566.00        3883.963
567.00        3976.343
568.00        4046.781
569.00        4170.556
570.00        4296.394
571.00         4357.89
572.00        4402.319
573.00        4447.989
574.00        4514.269
575.00        4623.207
576.00        4696.662
577.00        4740.713
578.00        4819.767
579.00        4924.062
580.00        4990.072
581.00        4984.488
582.00        5083.208
583.00        5199.613
584.00        5248.904
585.00        5303.417
586.00        5363.183
587.00        5422.608
588.00        5461.067
589.00        5550.903
590.00        5658.762
591.00        5722.103
592.00        5750.164
593.00        5793.506
594.00         5885.35
595.00        5972.082
596.00        6058.714
597.00        6130.053
598.00        6157.898
599.00        6195.482
600.00        6233.954
601.00        6247.926
602.00        6260.295
603.00        6302.761
604.00        6388.273
605.00        6506.125
606.00        6570.984
607.00        6616.667
608.00        6759.343
609.00        6866.042
610.00        6935.997
611.00        7015.073
612.00        7126.112
613.00        7209.432
614.00        7259.774
615.00        7390.166
616.00        7510.884
617.00        7598.002
618.00        7679.259
619.00        7836.268
620.00        8001.269
621.00        8104.376
622.00        8213.829
623.00        8350.087
624.00        8497.951
625.00        8607.402
626.00        8784.751
627.00        8994.488
628.00        9155.377
629.00        9172.308
630.00        9287.132
631.00        9571.544
632.00        9679.821
633.00        9842.209
634.00        10030.08
635.00        10111.92
636.00        10261.57
637.00        10444.08
638.00        10611.82
639.00        10817.51
640.00        11013.76
641.00        11186.41
642.00        11350.93
643.00        11570.73
644.00        11798.83
645.00        11984.46
646.00        12192.32
647.00        12400.04
648.00        12586.36
649.00        12747.94
650.00        12968.44
651.00        13246.62
652.00        13524.98
653.00        13725.46
654.00        13924.41
655.00        14159.83
656.00        14372.59
657.00        14631.61
658.00        14883.54
659.00        15085.99
660.00         15332.3
661.00        15646.28
662.00        15948.22
663.00        16077.57
664.00        16344.16
665.00        16723.87
666.00        17060.55
667.00        17393.48
668.00        17660.98
669.00        17860.55
670.00        18050.27
671.00        18370.71
672.00        18777.99
673.00        19127.31
674.00        19364.94
675.00        19669.48
676.00        20031.17
677.00        20367.63
678.00        20637.47
679.00        20921.73
680.00        21296.04
681.00        21618.59
682.00        21939.36
683.00        22285.73
684.00        22657.27
685.00        22932.84
686.00        23263.25
687.00         23732.1
688.00        24031.19
689.00        24355.96
690.00        24682.93
691.00        24907.21
692.00        25363.59
693.00         25862.7
694.00        26210.76
695.00        26481.19
696.00        26850.52
697.00        27271.19
698.00        27593.03
699.00        27859.57
700.00        28123.14
701.00        28412.34
702.00         28766.8
703.00        29155.23
704.00        29437.57
705.00        29984.19
706.00        30259.95
707.00        30544.35
708.00        30896.71
709.00        31216.66
710.00        31544.01
711.00        31766.06
712.00        31917.11
713.00        32210.75
714.00        32528.89
715.00        32806.01
716.00        33002.84
717.00        33053.36
718.00        33160.82
719.00        33341.49
720.00        33452.96
721.00        33584.13
722.00        33632.23
723.00        33763.68
724.00        34268.79
725.00        34507.04
726.00        34768.69
727.00         35073.1
728.00        35008.75
729.00        35281.64
730.00        35694.04
731.00        35661.61
732.00        35653.66
733.00        35792.04
734.00        36070.65
735.00        36386.12
736.00        36528.84
737.00        36747.38
738.00        36899.52
739.00        37077.57
740.00        37250.57
741.00        37489.74
742.00        37753.88
743.00        37990.48
744.00        38037.35
745.00        38017.07
746.00        38129.56
747.00        38354.16
748.00        38485.98
749.00        38456.82
750.00           38463
751.00        38647.48
752.00        38867.07
753.00        38917.38
754.00         38947.2
755.00        38955.91
756.00        39021.02
757.00        39141.13
758.00        39262.11
759.00        39135.11
760.00        39099.18
761.00        39248.15
762.00        39122.24
763.00        39226.36
764.00        39415.93
765.00        39156.87
766.00        39297.18
767.00        39324.85
768.00        39201.99
769.00        39416.16
770.00        39303.71
771.00        39237.52
772.00        39334.41
773.00        39174.14
774.00        39056.91
775.00        39073.77
776.00        39157.42
777.00        39125.97
778.00        38988.42
779.00        38844.93
780.00        38761.91
781.00        38711.69
782.00        38595.17
783.00         38648.5
784.00        38840.37
785.00        38640.23
786.00        38624.01
787.00        38750.23
788.00        38758.59
789.00        38758.68
790.00        38716.54
791.00        38643.29
792.00        38515.54
793.00        38389.64
794.00        38393.53
795.00        38300.98
796.00        38107.02
797.00        38167.82
798.00        38171.04
799.00        37984.44
800.00        37863.36
801.00        38048.91
802.00        38034.47
803.00        37927.86
804.00        38018.48
805.00           37994
806.00        37945.35
807.00        37880.44
808.00        37800.03
809.00        37795.93
810.00        37663.16
811.00        37543.25
812.00        37560.63
813.00        37602.15
814.00        37474.97
815.00        37426.99
816.00        37573.64
817.00        37364.57
818.00        37228.58
819.00        37289.27
820.00        37396.53
821.00        37160.81
822.00        37166.54
823.00        37175.63
824.00        37146.93
825.00        37177.27
826.00        36932.98
827.00        37035.25
828.00        37017.44
829.00        36923.73
830.00        36999.62
831.00        37120.39
832.00        37147.97
833.00        37096.03
834.00        36903.34
835.00        36976.87
836.00        37144.54
837.00        37040.86
838.00        37214.27
839.00        37346.96
840.00        37364.84
841.00         37329.6
842.00        37244.81
843.00        37277.75
844.00        37521.49
845.00         37450.5
846.00        37541.58
847.00         37493.5
848.00        37685.01
849.00        37705.34
850.00        37788.52
851.00        37892.39
852.00        37905.94
853.00        37886.89
854.00        37963.82
855.00        37913.47
856.00        38116.47
857.00        38220.48
858.00        38041.23
859.00        38257.23
860.00        38270.11
861.00        38288.18
862.00        38396.64
863.00        38377.39
864.00         38221.5
865.00        38376.38
866.00        38633.25
867.00        38531.29
868.00        38695.84
869.00         38660.6
870.00        38615.37
871.00        38657.14
872.00        38466.38
873.00        38386.04
874.00        38374.48
875.00        38361.03
876.00        38329.65
877.00        38379.93
878.00        38238.66
879.00         38358.6
880.00        38444.86
881.00        38690.96
882.00        38771.06
883.00        38837.23
884.00        38917.61
885.00        38963.57
886.00        39119.26
887.00        39122.61
888.00        38944.53
889.00        39178.03
890.00        39226.61
891.00        39422.11
892.00        39410.53
893.00        39372.44
894.00         39492.5
895.00        39574.91
896.00        39390.98
897.00        39291.46
898.00        39402.06
899.00        39392.85
900.00        39419.19
901.00        39379.12
902.00        39298.16
903.00        39279.36
904.00        39206.83
905.00         39209.8
906.00        39103.13
907.00        39036.63
908.00         39024.4
909.00        39024.63
910.00         38978.3
911.00        38661.92
912.00        38355.36
913.00        38481.25
914.00        38299.98
915.00         38119.5
916.00        37973.44
917.00        37939.21
918.00        37587.98
919.00        37434.43
920.00         37046.7
921.00        36732.66
922.00        36613.32
923.00        36389.41
924.00        36000.85
925.00        35716.71
926.00         35375.5
927.00        34653.94
928.00        34208.11
929.00           33860
930.00        33464.61
931.00        32811.95
932.00        31917.42
933.00        31022.63
934.00        29927.85
935.00        28520.56
936.00        26748.13
937.00        24919.16
938.00        23435.61
939.00        21988.21
940.00        20853.51
941.00        20061.79
942.00        19525.86
943.00        19199.03
944.00        19275.02
945.00        19355.14
946.00        19652.28
947.00        20189.37
948.00        20636.78
949.00        21021.91
950.00        21682.77
951.00        22269.08
952.00        22702.36
953.00        23259.71
954.00        23703.33
955.00        24279.45
956.00        24716.59
957.00         25039.8
958.00        25422.43
959.00        25746.25
960.00        26139.71
961.00        26354.55
962.00         26593.9
963.00        26733.34
964.00        26709.97
965.00        26660.19
966.00        26601.99
967.00         26579.3
968.00        26640.28
969.00        26711.08
970.00        26623.46
971.00        26868.63
972.00        26913.12
973.00        26813.68
974.00        26820.05
975.00        27037.11
976.00        26869.69
977.00        26849.74
978.00        26640.94
979.00        26344.23
980.00        26231.35
981.00        26024.51
982.00        25967.91
983.00        25668.31
984.00        25431.51
985.00        25288.51
986.00        24986.58
987.00        24748.38
988.00        24544.42
989.00        24080.44
990.00        23502.92
991.00        22943.89
992.00         22325.1
993.00        21696.54
994.00        21144.14
995.00        20502.54
996.00        19875.12
997.00        19301.57
998.00        18647.84
999.00        17916.13
1000.00        17406.04
1001.00        16745.22
1002.00        16055.63
1003.00        15451.21
1004.00        14785.94
1005.00        14055.49
1006.00        13424.99
1007.00        12848.58
1008.00        12171.02
1009.00        11491.43
1010.00        10938.12
1011.00        10306.04
1012.00        9746.388
1013.00        9162.385
1014.00        8623.654
1015.00         8103.58
1016.00        7565.798
1017.00        7065.571
1018.00        6523.493
1019.00        6124.731
1020.00        5567.229
