SpectraSmart Spectrum 2.6.17.30709
--------- Device Information -----------
Spectrum Name :  Spectrum_0
Saving Time :  2021/11/14 21:01:33
Spectro-Module Model Name : SE1030-VNIR
Spectro-Module Serial Number : OS361AC55010184
Wavelength Start : 350
Wavelength End : 1020
Wavelength Unit : Wavelength(nm)
Spectrum Unit : Intensity(Counts)
-----------Spectrum Setting ------------
Integration Time : 50ms
Average : 1
Boxcar : 0
Background removal :  enabled
linearity correction :  enabled
SC :  disabled
Intensity correction :  disabled
DWT denoise :  enabled
savitzky-golay :  disabled
FFT :  disabled
Running average :  disabled
Kalman :  disabled
High pass :  disabled
---------------BEGIN--------------------
Wavelength(nm)          Intensity(Counts)
350.00        63.35731
351.00         63.1144
352.00        66.85666
353.00        73.72246
354.00        81.06512
355.00        83.27266
356.00        77.14629
357.00        68.31651
358.00        63.70282
359.00        66.09528
360.00        76.42627
361.00        81.56481
362.00        68.02431
363.00        63.38169
364.00          67.536
365.00        66.36607
366.00        71.27362
367.00        77.83438
368.00        76.91571
369.00        82.66509
370.00        88.06963
371.00        80.30373
372.00        74.28738
373.00        74.77836
374.00        80.66662
375.00        81.76387
376.00        82.09729
377.00        89.99633
378.00        97.41727
379.00        96.71164
380.00        83.24542
381.00        87.69041
382.00        98.90403
383.00        89.69862
384.00        91.33315
385.00        93.64945
386.00        75.85074
387.00        82.40075
388.00        96.56844
389.00        86.42126
390.00        83.93323
391.00        91.80726
392.00        100.7016
393.00        101.7838
394.00        96.20535
395.00        91.27435
396.00        91.42605
397.00        93.20523
398.00        89.68715
399.00        95.87874
400.00        95.33572
401.00        75.11128
402.00        86.02448
403.00        105.9753
404.00        101.0257
405.00        97.76159
406.00        93.82548
407.00        86.11063
408.00         88.0963
409.00        93.71149
410.00        95.44866
411.00        106.9471
412.00        110.7758
413.00        96.94137
414.00        98.13372
415.00        99.87173
416.00        90.47062
417.00        100.8952
418.00        102.4293
419.00        83.93107
420.00        104.2037
421.00        112.9059
422.00        88.00049
423.00        95.40583
424.00        100.7776
425.00        90.09117
426.00        96.02995
427.00        100.3918
428.00        97.13895
429.00        102.7758
430.00        100.6198
431.00        96.81847
432.00        127.3424
433.00        129.5596
434.00        105.4949
435.00        117.0912
436.00        117.3016
437.00        105.7255
438.00        113.7435
439.00        104.8463
440.00        93.18501
441.00        111.3114
442.00        121.4243
443.00        119.0042
444.00        114.8154
445.00        119.7118
446.00        123.7291
447.00        113.1382
448.00        108.3748
449.00        109.9445
450.00        111.8006
451.00        118.2598
452.00        118.4848
453.00        108.9883
454.00        100.7784
455.00        110.9465
456.00        136.4655
457.00        125.7972
458.00        113.9425
459.00        125.8458
460.00        142.1806
461.00        141.4286
462.00        125.3177
463.00        130.7728
464.00        143.4778
465.00        146.9433
466.00        121.7955
467.00        126.6352
468.00        151.2565
469.00         134.859
470.00        139.7258
471.00        153.0564
472.00        137.2357
473.00        131.8111
474.00        147.1006
475.00         175.065
476.00        167.4338
477.00        152.3759
478.00        166.5803
479.00         158.046
480.00        153.5334
481.00        172.1656
482.00        176.7729
483.00        171.5838
484.00        165.8082
485.00        173.8759
486.00        175.2572
487.00        169.6384
488.00        194.2829
489.00        196.3485
490.00        181.4852
491.00        203.0258
492.00        204.9655
493.00        198.2685
494.00        219.6168
495.00          229.78
496.00        226.3268
497.00        222.2519
498.00          218.69
499.00        227.6194
500.00        248.9115
501.00        253.5965
502.00        249.3714
503.00        249.2536
504.00        252.9954
505.00        265.6263
506.00         282.821
507.00        289.4242
508.00        297.4354
509.00        305.5691
510.00        300.8033
511.00        307.3918
512.00        318.9522
513.00        317.8945
514.00        323.9742
515.00         332.321
516.00        335.5147
517.00        340.6769
518.00        354.1003
519.00        374.2828
520.00        366.8898
521.00        379.4044
522.00        420.0216
523.00        410.5025
524.00        423.6535
525.00        463.9291
526.00        469.5249
527.00        491.3028
528.00        513.6918
529.00        501.8793
530.00        524.0898
531.00        555.3128
532.00        557.4703
533.00         588.002
534.00        610.2068
535.00        606.1314
536.00        648.2478
537.00        680.0165
538.00        686.7989
539.00         725.732
540.00        748.7734
541.00        762.6155
542.00        801.8115
543.00        828.7892
544.00        842.3184
545.00        856.9777
546.00        888.3589
547.00        924.5526
548.00        954.8349
549.00        985.4704
550.00        1032.201
551.00        1076.885
552.00        1046.015
553.00        1059.241
554.00        1116.335
555.00         1132.98
556.00        1167.874
557.00        1214.851
558.00        1252.655
559.00        1305.938
560.00        1344.039
561.00        1348.404
562.00        1369.849
563.00        1381.381
564.00        1396.657
565.00        1486.571
566.00        1519.876
567.00        1515.405
568.00        1567.053
569.00        1610.885
570.00        1644.029
571.00        1675.305
572.00        1681.994
573.00        1707.591
574.00        1763.675
575.00         1792.94
576.00        1804.416
577.00         1814.79
578.00        1838.444
579.00        1882.732
580.00        1919.417
581.00        1927.647
582.00        2001.177
583.00        2053.209
584.00        2035.511
585.00        2088.021
586.00        2122.688
587.00        2131.242
588.00        2188.857
589.00        2217.825
590.00        2235.659
591.00        2281.746
592.00        2298.365
593.00        2313.984
594.00        2352.739
595.00        2376.973
596.00        2410.851
597.00         2449.12
598.00        2458.219
599.00        2488.237
600.00        2516.331
601.00        2507.304
602.00        2501.097
603.00         2520.98
604.00        2575.447
605.00        2674.695
606.00        2689.074
607.00        2650.537
608.00        2712.622
609.00        2790.503
610.00        2850.828
611.00        2890.238
612.00        2914.129
613.00        2964.662
614.00        3037.265
615.00        3049.907
616.00         3077.14
617.00        3137.289
618.00        3204.168
619.00        3281.965
620.00        3344.095
621.00        3385.233
622.00          3469.5
623.00        3533.701
624.00         3569.51
625.00        3633.914
626.00         3725.48
627.00         3808.67
628.00        3855.524
629.00        3900.592
630.00        3979.905
631.00        4086.476
632.00        4144.592
633.00         4210.97
634.00        4285.122
635.00        4342.408
636.00        4412.322
637.00        4508.806
638.00        4620.528
639.00        4669.977
640.00        4776.637
641.00        4919.801
642.00        4973.696
643.00        5045.436
644.00        5128.091
645.00        5203.222
646.00        5316.041
647.00        5444.107
648.00        5556.202
649.00         5635.13
650.00        5701.039
651.00        5800.049
652.00        5949.256
653.00        6077.507
654.00        6191.931
655.00        6295.033
656.00         6380.27
657.00        6492.793
658.00        6659.155
659.00        6858.435
660.00          6910.3
661.00        6996.113
662.00        7148.327
663.00        7202.337
664.00        7339.355
665.00        7534.135
666.00        7702.346
667.00        7815.843
668.00        7988.617
669.00        8192.595
670.00        8223.266
671.00        8333.564
672.00         8538.83
673.00        8740.466
674.00        8811.724
675.00        8968.349
676.00        9215.863
677.00        9293.673
678.00        9437.774
679.00        9629.847
680.00         9789.79
681.00        9918.408
682.00        10108.57
683.00        10315.27
684.00        10462.81
685.00        10647.79
686.00        10848.58
687.00        11022.31
688.00        11185.68
689.00        11367.16
690.00        11595.95
691.00        11859.28
692.00        12034.37
693.00        12146.61
694.00        12282.35
695.00        12550.49
696.00        12709.12
697.00        12856.66
698.00        13149.26
699.00         13291.8
700.00        13438.24
701.00        13667.34
702.00        13912.36
703.00        14045.92
704.00        14191.82
705.00        14397.86
706.00        14457.23
707.00        14641.01
708.00        14906.91
709.00        15041.46
710.00        15222.12
711.00        15409.28
712.00        15554.36
713.00         15719.8
714.00        15759.62
715.00        15888.24
716.00        16181.15
717.00        16105.27
718.00        16164.38
719.00        16411.36
720.00        16535.77
721.00        16626.26
722.00        16684.06
723.00        16753.46
724.00        16874.54
725.00        17075.07
726.00        17230.54
727.00        17287.36
728.00         17446.5
729.00        17671.82
730.00        17802.22
731.00        17730.29
732.00        17825.58
733.00        17961.23
734.00        18088.69
735.00        18344.67
736.00        18412.35
737.00        18448.83
738.00        18609.44
739.00         18769.1
740.00        18867.92
741.00        18965.38
742.00        19121.07
743.00        19338.44
744.00        19281.33
745.00        19362.81
746.00        19424.18
747.00        19477.69
748.00        19556.06
749.00        19679.06
750.00        19838.55
751.00        19850.18
752.00        19907.21
753.00        20102.78
754.00        20164.59
755.00        20247.65
756.00        20300.33
757.00        20305.56
758.00        20445.83
759.00        20480.62
760.00        20408.05
761.00        20373.67
762.00        20415.14
763.00        20514.93
764.00        20562.34
765.00        20512.36
766.00        20582.93
767.00        20609.19
768.00        20621.77
769.00        20784.88
770.00         20767.1
771.00        20705.76
772.00        20741.17
773.00        20738.35
774.00        20808.35
775.00        20797.24
776.00         20808.4
777.00        20724.88
778.00        20796.77
779.00        20848.61
780.00        20789.98
781.00        20849.98
782.00        20859.95
783.00        20850.04
784.00        20878.53
785.00        20957.49
786.00        20852.01
787.00        20865.88
788.00        21021.33
789.00        20886.18
790.00        20831.62
791.00        20976.81
792.00        20906.82
793.00        20822.17
794.00        20809.33
795.00        20836.37
796.00        20835.04
797.00        20890.91
798.00        20901.73
799.00        20873.61
800.00        20879.66
801.00        20844.75
802.00        20841.48
803.00        20852.16
804.00        20842.24
805.00        20760.85
806.00        20828.48
807.00        20898.44
808.00        20797.76
809.00        20844.74
810.00        20863.13
811.00        20889.99
812.00        20895.86
813.00         20808.8
814.00        20823.14
815.00         20905.7
816.00         20911.9
817.00        20763.02
818.00        20778.14
819.00        20871.19
820.00         20869.4
821.00        20824.48
822.00        20820.72
823.00         20865.3
824.00        20907.04
825.00        20927.89
826.00        20893.54
827.00        21000.06
828.00        21155.14
829.00         20983.9
830.00         20979.2
831.00        21040.35
832.00        20994.52
833.00        21028.12
834.00        21218.52
835.00        21235.06
836.00        21164.33
837.00        21275.07
838.00        21340.96
839.00        21371.34
840.00        21349.84
841.00        21333.82
842.00        21427.68
843.00        21552.83
844.00        21519.36
845.00        21477.05
846.00        21498.32
847.00        21562.71
848.00        21606.46
849.00        21661.43
850.00        21905.52
851.00        21890.75
852.00         21831.1
853.00        21890.22
854.00         21966.7
855.00        22041.37
856.00        22144.16
857.00        22187.64
858.00        22153.25
859.00        22222.85
860.00        22344.78
861.00        22461.35
862.00        22524.57
863.00        22534.78
864.00        22476.97
865.00        22501.15
866.00        22527.32
867.00        22684.79
868.00        22877.54
869.00        22760.59
870.00        22705.34
871.00        22754.56
872.00         22706.1
873.00        22769.08
874.00        22741.45
875.00        22633.38
876.00        22673.55
877.00        22801.13
878.00        22740.84
879.00         22733.3
880.00        22950.29
881.00        23083.46
882.00        23156.76
883.00        23167.78
884.00        23182.07
885.00        23336.29
886.00        23431.03
887.00        23475.83
888.00        23552.75
889.00        23648.36
890.00        23613.27
891.00        23720.75
892.00        23848.68
893.00         23911.5
894.00        23889.64
895.00        23800.63
896.00        23834.92
897.00        23885.44
898.00        23889.74
899.00        23925.47
900.00        23954.25
901.00         23904.6
902.00        23876.35
903.00        23797.24
904.00        23936.77
905.00        24046.46
906.00        23896.47
907.00        23773.53
908.00         23796.3
909.00        23870.51
910.00        23862.36
911.00        23714.13
912.00        23481.07
913.00        23677.24
914.00         23576.6
915.00        23471.95
916.00        23369.57
917.00        23267.07
918.00        23148.59
919.00        23037.92
920.00        22857.77
921.00        22739.61
922.00        22723.22
923.00        22567.53
924.00        22258.61
925.00        22100.48
926.00        21944.61
927.00        21551.96
928.00        21326.43
929.00        21121.27
930.00         20987.8
931.00        20552.03
932.00        19944.17
933.00        19327.23
934.00        18718.83
935.00        17833.85
936.00        16785.14
937.00         15746.2
938.00        14669.32
939.00        13734.52
940.00        13093.97
941.00        12647.61
942.00        12307.22
943.00        12166.94
944.00        12177.31
945.00        12327.39
946.00        12512.61
947.00        12715.37
948.00        13009.52
949.00        13431.53
950.00        13659.33
951.00        13983.38
952.00         14424.3
953.00        14728.53
954.00        15052.55
955.00         15417.3
956.00        15702.31
957.00        15920.61
958.00        16175.52
959.00        16448.84
960.00        16640.84
961.00         16789.4
962.00         16950.4
963.00        17088.07
964.00        17159.86
965.00        17059.42
966.00        16988.01
967.00        17019.39
968.00        17075.63
969.00        17078.45
970.00        17167.23
971.00        17205.78
972.00        17218.26
973.00        17127.69
974.00        17070.61
975.00        17275.49
976.00        17286.82
977.00         17237.5
978.00        17114.47
979.00        17010.44
980.00        16916.63
981.00        16620.93
982.00        16718.43
983.00        16570.31
984.00        16393.74
985.00        16352.45
986.00         16243.1
987.00        15985.66
988.00        16040.55
989.00        15724.08
990.00        15272.86
991.00        14980.17
992.00        14583.75
993.00        14213.63
994.00        13834.86
995.00         13369.5
996.00         12930.7
997.00        12511.02
998.00         12012.5
999.00        11643.42
1000.00        11230.38
1001.00        10719.15
1002.00        10320.12
1003.00        9948.266
1004.00        9454.667
1005.00        9038.972
1006.00        8596.084
1007.00        8206.655
1008.00        7812.226
1009.00          7394.5
1010.00        7003.133
1011.00        6640.161
1012.00        6248.081
1013.00        5877.686
1014.00        5542.456
1015.00        5188.807
1016.00        4815.542
1017.00        4507.915
1018.00        4256.265
1019.00        3963.767
1020.00        3602.489
