SpectraSmart Spectrum 2.6.17.30709
--------- Device Information -----------
Spectrum Name :  Spectrum_0
Saving Time :  2021/11/14 21:06:43
Spectro-Module Model Name : SE1030-VNIR
Spectro-Module Serial Number : OS361AC55010184
Wavelength Start : 350
Wavelength End : 1020
Wavelength Unit : Wavelength(nm)
Spectrum Unit : Intensity(Counts)
-----------Spectrum Setting ------------
Integration Time : 50ms
Average : 1
Boxcar : 0
Background removal :  enabled
linearity correction :  enabled
SC :  disabled
Intensity correction :  disabled
DWT denoise :  enabled
savitzky-golay :  disabled
FFT :  disabled
Running average :  disabled
Kalman :  disabled
High pass :  disabled
---------------BEGIN--------------------
Wavelength(nm)          Intensity(Counts)
350.00        88.37556
351.00        87.82799
352.00        94.46062
353.00        98.66094
354.00         91.0382
355.00        86.67191
356.00        107.2884
357.00        107.7005
358.00        96.70023
359.00        104.0347
360.00        106.8542
361.00        104.4542
362.00        103.4166
363.00        105.7874
364.00        107.3058
365.00        101.4609
366.00        103.7589
367.00         109.937
368.00        110.4591
369.00        96.70557
370.00        88.69185
371.00        113.2054
372.00        114.9995
373.00        103.7598
374.00        116.6713
375.00        117.5961
376.00        114.3937
377.00        127.5664
378.00        137.0252
379.00        136.4774
380.00        128.2424
381.00        115.9641
382.00        109.2278
383.00        115.6435
384.00        116.0267
385.00        117.8947
386.00         135.196
387.00        139.3595
388.00        131.2905
389.00        124.9677
390.00        126.1681
391.00        132.5072
392.00        138.1448
393.00        124.2111
394.00         116.009
395.00          140.91
396.00        131.3215
397.00        110.2822
398.00        122.1574
399.00          122.84
400.00        126.6023
401.00        149.9528
402.00        134.0861
403.00        114.0221
404.00        132.2002
405.00        147.5134
406.00        147.4446
407.00        135.2902
408.00        124.2429
409.00        131.3261
410.00        155.7556
411.00        134.7414
412.00        120.2668
413.00        152.1435
414.00        131.1038
415.00        118.3903
416.00        155.2076
417.00        154.1189
418.00        139.9496
419.00        137.5328
420.00        132.0317
421.00        133.0906
422.00        140.6577
423.00        140.8003
424.00        138.8084
425.00        140.1548
426.00        148.5686
427.00        148.9906
428.00        138.5686
429.00         136.084
430.00         133.578
431.00        131.7046
432.00        139.6304
433.00        148.9185
434.00        154.0614
435.00        149.9085
436.00        156.5541
437.00        166.3761
438.00         150.197
439.00        163.0255
440.00        185.1645
441.00        163.3943
442.00        163.1308
443.00        175.0472
444.00        163.8158
445.00        172.2833
446.00        184.1665
447.00        173.8136
448.00        172.6682
449.00        178.0275
450.00         179.786
451.00        187.3712
452.00             194
453.00        195.5258
454.00        209.3995
455.00        217.5913
456.00        209.3851
457.00        208.4306
458.00        213.5704
459.00        221.0248
460.00        224.4426
461.00         233.715
462.00        248.4538
463.00         251.737
464.00        252.4012
465.00        255.8218
466.00        267.3686
467.00        261.5929
468.00        252.7106
469.00        282.3125
470.00        279.0898
471.00        262.3317
472.00        285.9099
473.00        294.9756
474.00        291.8346
475.00        297.1509
476.00        311.8195
477.00        327.6347
478.00        334.1306
479.00        333.2397
480.00        334.9093
481.00        345.2535
482.00        349.9711
483.00        355.0471
484.00        361.2766
485.00        355.0655
486.00        356.0138
487.00        374.0846
488.00        402.1165
489.00        425.0477
490.00        435.9786
491.00        438.0488
492.00        441.7389
493.00        446.2786
494.00        444.8604
495.00        459.6133
496.00        480.4939
497.00        492.0881
498.00        502.2066
499.00        523.6699
500.00        557.6345
501.00        564.9852
502.00        568.0336
503.00        586.5027
504.00        602.9723
505.00        620.2203
506.00        639.2792
507.00        664.9551
508.00        669.7714
509.00        661.6708
510.00        676.6921
511.00        699.4988
512.00        726.8553
513.00        762.0776
514.00        779.2983
515.00        804.0229
516.00        857.5839
517.00        871.3419
518.00        878.9025
519.00        916.4055
520.00        945.8264
521.00        989.9677
522.00        1047.995
523.00        1075.041
524.00        1109.157
525.00         1149.15
526.00        1162.137
527.00        1183.381
528.00        1231.096
529.00        1303.931
530.00        1367.172
531.00        1412.809
532.00        1452.281
533.00        1508.897
534.00         1560.04
535.00        1592.572
536.00        1638.443
537.00        1712.891
538.00        1805.377
539.00        1880.781
540.00        1921.591
541.00        1954.106
542.00        2021.172
543.00        2097.864
544.00        2160.832
545.00        2202.905
546.00        2287.471
547.00        2372.177
548.00        2423.294
549.00        2522.556
550.00        2606.344
551.00        2655.536
552.00        2738.465
553.00        2812.539
554.00        2882.039
555.00        2975.303
556.00        3056.695
557.00        3124.299
558.00        3194.685
559.00        3280.973
560.00        3385.612
561.00        3491.295
562.00        3545.611
563.00        3611.898
564.00        3701.156
565.00        3742.525
566.00        3809.572
567.00         3909.45
568.00        4003.608
569.00        4108.534
570.00        4172.402
571.00        4184.393
572.00        4296.985
573.00        4428.792
574.00        4508.729
575.00        4582.107
576.00          4635.7
577.00        4684.986
578.00        4754.625
579.00        4835.628
580.00        4922.319
581.00        5006.145
582.00        5028.494
583.00        5069.406
584.00        5176.316
585.00        5243.847
586.00         5316.48
587.00         5399.71
588.00        5453.916
589.00         5548.86
590.00        5641.644
591.00        5671.749
592.00         5774.55
593.00        5852.101
594.00         5854.37
595.00        5992.287
596.00        6078.085
597.00        6092.607
598.00        6192.469
599.00        6256.871
600.00        6267.161
601.00        6256.828
602.00        6275.531
603.00         6330.13
604.00        6408.969
605.00        6547.701
606.00        6595.926
607.00        6614.068
608.00        6801.386
609.00        6924.185
610.00        6969.432
611.00        7026.764
612.00         7213.35
613.00        7362.148
614.00        7395.566
615.00        7491.308
616.00        7613.491
617.00            7730
618.00         7814.29
619.00        7963.574
620.00        8117.628
621.00        8220.082
622.00        8392.334
623.00        8525.045
624.00        8611.054
625.00        8764.015
626.00         8906.69
627.00        9056.108
628.00        9249.711
629.00        9414.556
630.00        9616.214
631.00        9835.053
632.00        9877.226
633.00        10019.52
634.00        10272.52
635.00        10486.99
636.00        10623.85
637.00        10768.36
638.00           10986
639.00        11144.59
640.00        11340.16
641.00        11569.19
642.00        11753.27
643.00        11973.19
644.00        12194.51
645.00        12379.79
646.00        12594.08
647.00        12813.29
648.00        13039.29
649.00        13311.24
650.00        13489.23
651.00        13679.23
652.00        13989.09
653.00        14199.64
654.00        14425.45
655.00        14708.48
656.00        14940.31
657.00        15232.07
658.00        15481.82
659.00        15617.17
660.00        15929.68
661.00        16265.39
662.00        16533.18
663.00        16809.07
664.00        17178.29
665.00        17545.43
666.00        17799.98
667.00        18140.29
668.00        18415.01
669.00        18597.17
670.00        18855.95
671.00        19206.12
672.00        19604.73
673.00        19977.02
674.00        20260.79
675.00        20567.96
676.00        20923.01
677.00        21216.75
678.00        21593.46
679.00        21980.79
680.00        22304.55
681.00        22724.12
682.00        23120.98
683.00        23463.04
684.00         23813.5
685.00        24190.13
686.00        24559.92
687.00        24909.88
688.00        25329.55
689.00        25724.89
690.00        26097.31
691.00        26435.78
692.00        26945.18
693.00        27356.23
694.00        27566.84
695.00        28126.99
696.00        28491.63
697.00        28789.25
698.00        29301.91
699.00         29733.2
700.00        30044.86
701.00        30360.97
702.00        30907.54
703.00        31242.51
704.00        31542.87
705.00        31994.52
706.00        32277.72
707.00        32496.45
708.00        32927.16
709.00        33335.18
710.00        33657.47
711.00        33937.93
712.00        34212.14
713.00        34419.97
714.00        34734.66
715.00        35087.16
716.00        35373.33
717.00        35666.38
718.00        35889.38
719.00        36081.43
720.00        36423.34
721.00        36672.89
722.00        36860.33
723.00         37091.8
724.00        37464.77
725.00        37782.36
726.00        38116.46
727.00        38314.15
728.00        38358.95
729.00        38450.56
730.00        38682.27
731.00        38991.66
732.00        39046.47
733.00        39156.14
734.00        39422.32
735.00        39545.21
736.00        39890.42
737.00        40168.13
738.00        40191.16
739.00        40441.78
740.00        40543.41
741.00        40732.45
742.00        41121.13
743.00        41194.84
744.00        41308.84
745.00        41503.95
746.00         41577.5
747.00        41606.78
748.00        41776.08
749.00        41978.39
750.00        41858.74
751.00        42116.43
752.00        42406.36
753.00        42417.78
754.00        42453.51
755.00        42596.54
756.00        42572.52
757.00        42426.15
758.00        42559.53
759.00        42752.44
760.00        42876.31
761.00        42842.18
762.00        42901.11
763.00        42912.38
764.00        42905.97
765.00        42980.13
766.00        43073.48
767.00        42935.91
768.00        42771.73
769.00        43113.19
770.00        43038.02
771.00        42992.38
772.00        43149.19
773.00        43057.84
774.00        42891.76
775.00         42866.2
776.00        42971.95
777.00        42835.19
778.00        42813.17
779.00        42823.44
780.00        42746.41
781.00        42668.05
782.00        42761.08
783.00        42816.16
784.00        42725.84
785.00        42648.85
786.00        42709.66
787.00        42783.93
788.00        42747.26
789.00        42833.63
790.00         42760.8
791.00        42624.95
792.00        42593.88
793.00        42400.69
794.00        42439.62
795.00        42507.93
796.00        42333.48
797.00        42282.27
798.00        42314.45
799.00        42273.89
800.00         42088.9
801.00        42204.89
802.00        42104.76
803.00        41990.31
804.00        42239.98
805.00        42037.71
806.00        41976.76
807.00         42065.6
808.00        42062.95
809.00        42086.68
810.00        41926.47
811.00        41770.74
812.00           41829
813.00        41851.77
814.00        41864.72
815.00        41836.35
816.00        41706.13
817.00        41814.93
818.00        41641.11
819.00        41541.66
820.00        41661.32
821.00        41570.27
822.00        41608.14
823.00        41641.62
824.00        41527.97
825.00        41689.51
826.00        41625.67
827.00         41613.2
828.00        41753.12
829.00        41680.61
830.00        41547.97
831.00        41590.46
832.00        41682.84
833.00        41598.82
834.00        41679.75
835.00        41767.07
836.00           41809
837.00        41768.99
838.00        41727.87
839.00        42005.39
840.00        41949.56
841.00        41928.05
842.00        41904.62
843.00        42144.88
844.00        42282.26
845.00        42191.84
846.00        42206.53
847.00        42395.87
848.00         42535.9
849.00        42571.63
850.00        42722.93
851.00        42709.91
852.00        42710.87
853.00        42832.09
854.00        42949.36
855.00        42903.18
856.00        42968.26
857.00        43298.26
858.00        43188.55
859.00        43282.64
860.00        43444.76
861.00        43580.56
862.00        43627.46
863.00        43623.82
864.00         43724.1
865.00        43863.85
866.00        43962.66
867.00        44002.55
868.00        44085.41
869.00        44221.02
870.00        44322.69
871.00        44380.21
872.00        44596.97
873.00        44560.15
874.00        44541.71
875.00        44583.83
876.00        44670.88
877.00        44631.61
878.00        44691.55
879.00        44903.07
880.00        45105.78
881.00        45096.54
882.00        45110.22
883.00        45158.34
884.00        45218.41
885.00         45265.9
886.00        45392.52
887.00        45451.58
888.00        45414.98
889.00        45401.27
890.00         45600.3
891.00        45713.07
892.00        45812.34
893.00        45837.32
894.00        45839.98
895.00        45728.51
896.00        45660.46
897.00         45688.7
898.00         45731.5
899.00        45678.61
900.00        45717.23
901.00        45755.04
902.00        45787.18
903.00        45734.38
904.00        45721.25
905.00        45709.49
906.00        45487.32
907.00        45467.32
908.00        45416.56
909.00        45483.43
910.00        45392.62
911.00        45239.79
912.00        45103.46
913.00        45050.83
914.00         44890.4
915.00        44666.83
916.00         44516.3
917.00        44411.51
918.00         44217.4
919.00        44097.29
920.00        43896.15
921.00        43729.85
922.00        43483.26
923.00        42903.43
924.00        42945.75
925.00         42832.5
926.00        42501.32
927.00        42178.19
928.00        41884.43
929.00        41494.71
930.00        41320.63
931.00        40757.43
932.00        40056.87
933.00         39353.3
934.00        38679.81
935.00        37867.56
936.00         36973.2
937.00        36064.19
938.00        35205.77
939.00        34584.05
940.00        34054.43
941.00        33661.48
942.00        33429.86
943.00        33257.59
944.00        33178.25
945.00         33272.3
946.00         33426.4
947.00        33567.76
948.00        33757.66
949.00        33922.07
950.00        34118.08
951.00        34283.67
952.00         34450.1
953.00        34616.49
954.00        34511.61
955.00        34898.96
956.00        34879.98
957.00        34694.73
958.00        35100.27
959.00         34928.4
960.00        35033.66
961.00         34979.5
962.00        34858.32
963.00        34763.92
964.00        34534.82
965.00        34079.94
966.00        33962.51
967.00        33906.68
968.00        33707.39
969.00        33470.25
970.00        33489.73
971.00        33314.08
972.00         33263.8
973.00        33166.91
974.00        32954.02
975.00        32903.13
976.00        32761.99
977.00        32562.22
978.00        32248.75
979.00         31842.8
980.00         31510.6
981.00        31410.92
982.00        31076.84
983.00        30724.98
984.00        30499.69
985.00        30284.56
986.00        29941.81
987.00        29650.29
988.00        29374.96
989.00        28828.09
990.00        28123.61
991.00        27374.91
992.00         26532.9
993.00        25693.61
994.00        24938.91
995.00        24100.85
996.00        23396.32
997.00        22676.16
998.00        21624.23
999.00        20945.38
1000.00        20132.94
1001.00        19303.65
1002.00        18505.46
1003.00         17724.4
1004.00         16932.1
1005.00        16122.42
1006.00        15448.47
1007.00         14728.9
1008.00        14008.49
1009.00        13301.11
1010.00        12558.88
1011.00        11836.46
1012.00        11236.15
1013.00        10562.98
1014.00         9915.78
1015.00        9301.134
1016.00        8652.944
1017.00        8025.093
1018.00        7473.624
1019.00        7086.736
1020.00        6413.512
