SpectraSmart Spectrum 2.6.17.30709
--------- Device Information -----------
Spectrum Name :  Spectrum_0
Saving Time :  2021/11/14 21:07:30
Spectro-Module Model Name : SE1030-VNIR
Spectro-Module Serial Number : OS361AC55010184
Wavelength Start : 350
Wavelength End : 1020
Wavelength Unit : Wavelength(nm)
Spectrum Unit : Intensity(Counts)
-----------Spectrum Setting ------------
Integration Time : 50ms
Average : 1
Boxcar : 0
Background removal :  enabled
linearity correction :  enabled
SC :  disabled
Intensity correction :  disabled
DWT denoise :  enabled
savitzky-golay :  disabled
FFT :  disabled
Running average :  disabled
Kalman :  disabled
High pass :  disabled
---------------BEGIN--------------------
Wavelength(nm)          Intensity(Counts)
350.00        91.03808
351.00        93.42894
352.00        90.63764
353.00        98.36541
354.00        106.4909
355.00        110.3634
356.00        108.5181
357.00        106.6967
358.00        107.6973
359.00        112.0944
360.00        113.7964
361.00        117.1032
362.00        129.9511
363.00        127.4936
364.00        118.4795
365.00        123.7825
366.00        127.0079
367.00        124.5301
368.00        121.7814
369.00        111.6053
370.00         110.259
371.00        137.9291
372.00        130.6534
373.00        109.4975
374.00        127.6274
375.00        139.2408
376.00        141.0375
377.00        147.0888
378.00         142.153
379.00        133.1779
380.00        134.0673
381.00        125.4081
382.00        121.5347
383.00        144.8782
384.00        143.8537
385.00        134.0233
386.00        152.9134
387.00        139.9689
388.00        119.9641
389.00        140.2533
390.00        132.1307
391.00        121.8284
392.00        156.2501
393.00          143.99
394.00        125.8549
395.00         164.088
396.00         165.389
397.00        142.8585
398.00        138.7151
399.00        147.6299
400.00        155.8122
401.00        149.7047
402.00        141.4567
403.00        144.7178
404.00        163.5378
405.00        150.4337
406.00        140.1663
407.00        168.1182
408.00        151.6266
409.00         142.604
410.00        183.6825
411.00        164.2473
412.00        140.4741
413.00        163.9808
414.00        147.6393
415.00        137.9327
416.00        164.1922
417.00        151.4397
418.00        139.0133
419.00        154.2388
420.00        159.6599
421.00         157.112
422.00        153.1927
423.00        158.0827
424.00        167.8241
425.00        173.1704
426.00        160.5148
427.00        154.9611
428.00        164.0994
429.00        162.8955
430.00        161.4864
431.00        160.5797
432.00        147.0318
433.00        150.9243
434.00        166.2627
435.00        154.8264
436.00         159.575
437.00        177.9377
438.00        179.1173
439.00         171.855
440.00         169.883
441.00        186.0089
442.00        193.0547
443.00        190.2122
444.00        188.8025
445.00        201.3505
446.00        210.2891
447.00        195.4948
448.00        200.9038
449.00        211.9785
450.00        206.3148
451.00        225.3228
452.00        241.9301
453.00        233.1488
454.00        246.5964
455.00        255.1384
456.00        239.1155
457.00        232.9439
458.00        232.1073
459.00        234.1675
460.00        246.3478
461.00        255.0428
462.00        254.9474
463.00        252.4692
464.00        261.5782
465.00        279.0124
466.00        286.6319
467.00        276.7603
468.00        266.6845
469.00        285.1024
470.00         305.284
471.00        312.8448
472.00        308.7899
473.00        298.0083
474.00        301.4964
475.00        330.8375
476.00        333.7062
477.00        332.1367
478.00        355.2722
479.00        358.0739
480.00        356.4239
481.00        367.5762
482.00         379.618
483.00        386.6393
484.00         386.378
485.00        380.4558
486.00        394.6866
487.00        426.1933
488.00        433.4849
489.00        440.6431
490.00        454.2621
491.00        466.3736
492.00        469.0226
493.00        470.2939
494.00        482.3857
495.00        507.0486
496.00        519.5668
497.00        502.2328
498.00        515.7559
499.00        539.9843
500.00        546.3561
501.00        581.6664
502.00        603.1715
503.00        592.8235
504.00        614.0604
505.00         644.283
506.00         667.556
507.00        684.1249
508.00        704.3114
509.00        721.9205
510.00        717.8303
511.00        730.7031
512.00        763.1057
513.00        799.3401
514.00        814.7657
515.00        833.5875
516.00        879.6519
517.00        880.2828
518.00        886.3191
519.00        941.4418
520.00        995.1243
521.00        1033.546
522.00        1057.371
523.00        1091.555
524.00        1127.135
525.00        1161.325
526.00        1197.707
527.00        1240.017
528.00         1282.63
529.00        1318.792
530.00        1350.457
531.00        1393.882
532.00        1455.909
533.00         1515.23
534.00        1563.691
535.00         1613.21
536.00        1727.011
537.00        1803.296
538.00         1823.53
539.00         1906.53
540.00        1952.016
541.00        1970.843
542.00        2030.525
543.00        2146.882
544.00        2244.971
545.00        2259.075
546.00        2351.343
547.00        2451.222
548.00        2487.697
549.00        2588.007
550.00        2654.331
551.00        2679.173
552.00        2816.543
553.00        2895.999
554.00        2923.458
555.00        3015.104
556.00        3118.861
557.00        3194.454
558.00        3234.444
559.00         3297.84
560.00        3426.188
561.00         3587.77
562.00        3604.143
563.00         3648.23
564.00        3778.939
565.00        3863.425
566.00        3926.795
567.00        3998.982
568.00        4106.989
569.00        4175.462
570.00         4224.24
571.00        4300.639
572.00        4455.255
573.00        4547.282
574.00        4533.828
575.00        4626.828
576.00        4691.135
577.00         4722.22
578.00        4815.188
579.00        4897.677
580.00        4963.769
581.00        5030.865
582.00        5096.305
583.00        5175.638
584.00        5268.615
585.00         5358.31
586.00        5410.439
587.00        5453.446
588.00        5554.551
589.00        5677.967
590.00        5758.084
591.00        5767.944
592.00        5839.409
593.00        5956.603
594.00        6060.203
595.00        6120.465
596.00        6165.984
597.00         6227.43
598.00        6326.969
599.00        6318.315
600.00        6304.691
601.00        6425.233
602.00        6421.204
603.00        6444.209
604.00         6589.21
605.00        6618.207
606.00        6701.535
607.00        6832.052
608.00        6859.863
609.00        7004.304
610.00        7168.519
611.00        7215.352
612.00        7280.542
613.00        7396.634
614.00        7547.792
615.00        7675.473
616.00        7740.247
617.00         7809.21
618.00        7982.514
619.00        8114.709
620.00        8257.397
621.00        8451.554
622.00        8528.176
623.00        8636.978
624.00        8814.481
625.00        8940.869
626.00        9116.119
627.00        9285.323
628.00        9384.273
629.00        9494.566
630.00        9654.912
631.00        9852.784
632.00        10007.18
633.00        10181.26
634.00        10384.18
635.00        10588.95
636.00        10765.37
637.00        10947.06
638.00        11159.92
639.00        11318.34
640.00        11544.96
641.00        11778.78
642.00        11859.25
643.00        12041.35
644.00        12328.33
645.00        12615.59
646.00        12845.56
647.00        13019.18
648.00        13197.96
649.00        13444.47
650.00        13708.39
651.00        13930.56
652.00        14111.99
653.00        14436.53
654.00        14715.06
655.00        14889.92
656.00        15124.17
657.00        15406.24
658.00        15698.91
659.00         15954.9
660.00        16255.51
661.00         16469.9
662.00        16642.08
663.00        17046.59
664.00        17340.75
665.00        17607.98
666.00        18012.03
667.00        18312.75
668.00        18578.64
669.00         18865.8
670.00        19148.08
671.00        19526.45
672.00        19889.89
673.00        20140.37
674.00         20524.6
675.00        20929.71
676.00        21264.06
677.00        21585.87
678.00        21840.13
679.00        22135.95
680.00        22552.32
681.00        22945.01
682.00         23360.9
683.00        23801.07
684.00        24221.92
685.00        24493.18
686.00        24785.77
687.00        25223.76
688.00        25649.42
689.00        25963.22
690.00        26314.72
691.00        26803.24
692.00        27328.29
693.00        27634.21
694.00        27900.91
695.00        28506.41
696.00        28932.33
697.00         29147.8
698.00        29623.14
699.00        29909.32
700.00        30232.82
701.00         30639.1
702.00        30925.23
703.00        31467.27
704.00        31971.31
705.00        32190.32
706.00        32511.06
707.00        32892.28
708.00        33199.78
709.00        33434.11
710.00        33827.91
711.00        34210.42
712.00        34482.96
713.00        34813.22
714.00        35073.58
715.00        35385.63
716.00        35804.25
717.00         35953.3
718.00        36186.68
719.00        36540.77
720.00        36767.32
721.00        36908.65
722.00        37191.97
723.00        37676.59
724.00        37909.53
725.00        38081.57
726.00        38202.76
727.00        38441.46
728.00        38651.55
729.00         38999.8
730.00        39276.91
731.00        39184.22
732.00        39503.88
733.00        39745.25
734.00        39749.09
735.00        39910.84
736.00        40166.57
737.00        40356.08
738.00        40424.09
739.00        40646.05
740.00        40885.23
741.00        41109.39
742.00        41345.88
743.00        41453.96
744.00        41617.02
745.00        41828.66
746.00         41945.5
747.00        42051.88
748.00        42092.64
749.00         42150.3
750.00        42395.84
751.00        42501.95
752.00        42578.46
753.00        42745.81
754.00        42843.44
755.00        43013.41
756.00           43039
757.00        43013.63
758.00        42901.29
759.00        43194.57
760.00        43434.54
761.00         43032.8
762.00        43162.18
763.00        43260.66
764.00         43171.9
765.00        43123.95
766.00        43161.64
767.00        43267.47
768.00        43441.79
769.00        43546.91
770.00        43304.27
771.00        43261.75
772.00        43493.54
773.00        43321.97
774.00        43303.57
775.00        43387.64
776.00        43206.52
777.00        43133.51
778.00        43101.29
779.00        43074.94
780.00        43054.84
781.00        43158.81
782.00        43124.95
783.00        43137.08
784.00        43082.25
785.00        42948.69
786.00        42922.71
787.00        43023.32
788.00        43050.41
789.00        42993.93
790.00        42766.46
791.00        42685.93
792.00        42739.83
793.00        42625.22
794.00        42573.55
795.00        42550.32
796.00        42468.96
797.00        42526.17
798.00        42375.43
799.00        42260.88
800.00         42464.3
801.00        42432.76
802.00        42357.04
803.00        42301.42
804.00        42238.57
805.00        42190.01
806.00         42113.7
807.00        42200.19
808.00        42305.92
809.00        42181.75
810.00        42177.59
811.00        42061.88
812.00        42003.04
813.00        42054.21
814.00        42039.52
815.00        41878.01
816.00         42007.4
817.00        42090.72
818.00        42039.65
819.00        41912.89
820.00        41812.65
821.00        41793.02
822.00        41827.88
823.00        41766.63
824.00        41658.22
825.00        41640.14
826.00         41565.7
827.00        41610.09
828.00        41739.98
829.00        41810.78
830.00        41782.94
831.00        41743.44
832.00        41752.09
833.00         41603.9
834.00        41756.76
835.00        41860.71
836.00        41875.82
837.00        42011.92
838.00        42032.72
839.00        42180.35
840.00        42368.19
841.00        42550.24
842.00        42083.11
843.00        42348.43
844.00        42382.39
845.00        42265.32
846.00        42353.23
847.00        42395.27
848.00        42554.05
849.00         42702.3
850.00        42692.07
851.00        42834.37
852.00        42989.32
853.00         43071.6
854.00        43094.66
855.00         43119.7
856.00        43254.37
857.00        43336.48
858.00        43332.18
859.00         43370.5
860.00        43648.93
861.00        43782.02
862.00        43775.39
863.00        43934.32
864.00        43985.23
865.00        44046.44
866.00        44159.45
867.00        44072.58
868.00        44257.43
869.00        44319.28
870.00        44339.52
871.00        44358.36
872.00        44352.68
873.00        44691.62
874.00        44618.64
875.00        44430.16
876.00         44879.8
877.00         44723.2
878.00        44784.66
879.00        44932.13
880.00        44937.83
881.00        45031.53
882.00        45166.37
883.00        45170.73
884.00        45106.02
885.00        45168.05
886.00        45489.59
887.00        45287.27
888.00        45305.88
889.00        45689.16
890.00        45542.23
891.00        45771.85
892.00        45795.58
893.00        45697.71
894.00         45687.9
895.00         45717.6
896.00        45777.07
897.00        45860.99
898.00        45898.78
899.00        45896.02
900.00           45908
901.00        45740.15
902.00        45692.77
903.00        45577.16
904.00        45566.51
905.00         45715.2
906.00        45614.33
907.00        45345.22
908.00        45153.93
909.00        45337.35
910.00        45474.01
911.00        45268.96
912.00        44941.62
913.00        44854.75
914.00         44803.5
915.00        44523.34
916.00        44339.05
917.00        44289.67
918.00        44091.04
919.00         44104.6
920.00        43772.83
921.00         43760.6
922.00        43593.68
923.00        43229.84
924.00         42871.2
925.00        42723.61
926.00        42526.78
927.00         42188.7
928.00        41813.64
929.00        41410.05
930.00        41031.76
931.00        40658.14
932.00        40108.86
933.00        39254.76
934.00        38543.02
935.00           38025
936.00        36823.55
937.00        35852.26
938.00        35183.08
939.00        34537.19
940.00        33921.45
941.00        33569.55
942.00        33394.12
943.00        33168.29
944.00        33196.43
945.00        33227.27
946.00        33281.57
947.00        33366.94
948.00        33445.05
949.00        33845.11
950.00        34051.57
951.00        34031.23
952.00        34256.46
953.00        34372.24
954.00        34417.92
955.00        34797.41
956.00        34822.51
957.00        34751.98
958.00         34993.5
959.00        34868.57
960.00        34763.39
961.00        34810.72
962.00        34831.02
963.00        34685.04
964.00        34508.72
965.00        34088.24
966.00        33772.24
967.00        33700.11
968.00         33591.9
969.00        33393.36
970.00        33297.35
971.00        33032.57
972.00        32953.27
973.00        32884.59
974.00        32784.44
975.00         32861.5
976.00        32595.72
977.00        32367.17
978.00        32070.05
979.00        31765.22
980.00        31487.32
981.00        31277.32
982.00        30960.78
983.00        30620.12
984.00         30379.6
985.00        30086.56
986.00        29655.64
987.00         29524.6
988.00        29240.06
989.00        28541.41
990.00        27827.08
991.00        27126.76
992.00        26397.16
993.00        25650.93
994.00        24750.07
995.00           23928
996.00        23120.03
997.00        22270.39
998.00        21601.47
999.00        20635.75
1000.00        19911.17
1001.00        19177.42
1002.00        18391.17
1003.00        17570.27
1004.00        16729.54
1005.00        16019.84
1006.00         15284.5
1007.00        14585.01
1008.00        13943.57
1009.00        13258.05
1010.00        12492.08
1011.00        11818.73
1012.00        11158.37
1013.00        10501.38
1014.00        9836.052
1015.00        9196.419
1016.00        8641.006
1017.00        8156.386
1018.00        7416.538
1019.00        7053.767
1020.00        6418.025
